sample,time,ECG,sample,time,ECG,sample,time,ECG,sample,time,ECG,sample,time,ECG,sample,time,ECG,sample,time,ECG
1,0.0,0.09339388176309554,1,0.0,0.23359623727367815,1,0.0,-1.2764415387847425,1,0.0,0.6171324123251742,1,0.0,0.05340908010340703,1,0.0,0.388671069004006,1,0.0,0.38817522516157327
2,0.02,0.031960655248283294,2,0.02,0.05992514873196982,2,0.02,0.9640768809613012,2,0.02,-1.3773988005670577,2,0.02,0.04984731471615339,2,0.02,0.725265927328128,2,0.02,0.8049121820510335
3,0.04,0.24894541075527982,3,0.04,0.42487064548288245,3,0.04,0.41770648439364194,3,0.04,0.31981854871584053,3,0.04,0.04504219068741095,3,0.04,0.41542154324120517,3,0.04,0.42509314085068256
4,0.06,0.11837889829251365,4,0.06,0.10507800332823945,4,0.06,0.6895136873127472,4,0.06,1.0089971771406234,4,0.06,0.026628212106287734,4,0.06,0.6519771355843957,4,0.06,1.0854509434077497
5,0.08,0.0297034914803732,5,0.08,-0.22843346205840556,5,0.08,0.1503018586700007,5,0.08,-0.37999768259199784,5,0.08,0.03238861339439117,5,0.08,0.165886704200896,5,0.08,-0.46961798288918
6,0.1,0.0627098870021423,6,0.1,-0.2119342105029922,6,0.1,0.10419224205747243,6,0.1,0.2913982498900887,6,0.1,0.048326374780662026,6,0.1,1.029322048567603,6,0.1,0.03797487459174328
7,0.12,0.03296547562030496,7,0.12,-0.0014664150665035913,7,0.12,-0.3214625558512448,7,0.12,-0.21453335785856265,7,0.12,0.06692448730144122,7,0.12,1.4409760062779309,7,0.12,1.0772095562718498
8,0.14,0.04049016645735862,8,0.14,0.9730823527519211,8,0.14,-0.1443399807897412,8,0.14,0.2016880744744781,8,0.14,0.0814939237979023,8,0.14,0.2916065644448998,8,0.14,-0.42310715814785077
9,0.16,0.009561437290231128,9,0.16,-2.3741449750465526,9,0.16,-0.30553034786351846,9,0.16,-0.1149411421938381,9,0.16,0.11314895695520605,9,0.16,0.7514417990705851,9,0.16,0.1326504067271694
10,0.18,0.005440571744283339,10,0.18,-0.12136534415857309,10,0.18,-0.11133214698282672,10,0.18,0.24641968711506204,10,0.18,0.1391647106710723,10,0.18,0.5050911791737752,10,0.18,-0.5498644786168684
11,0.2,-0.0113134631054955,11,0.2,-0.11500769826911265,11,0.2,-0.30986694471344123,11,0.2,0.0747062816190379,11,0.2,0.1495733448561322,11,0.2,0.7372411133948059,11,0.2,-0.433549872410424
12,0.22,0.0035106394736203056,12,0.22,0.1428396519810123,12,0.22,-0.09852233479182376,12,0.22,0.3943830904531774,12,0.22,0.12127919709334717,12,0.22,0.5887078046164144,12,0.22,-1.0374813176216018
13,0.24,0.03169749564672831,13,0.24,0.01638725604138781,13,0.24,-0.1415454601991593,13,0.24,0.022379991961065927,13,0.24,0.1370616586830373,13,0.24,0.7261442255361914,13,0.24,-1.017800409344057
14,0.26,0.06920376425134846,14,0.26,0.2475061211061625,14,0.26,0.3914596039843158,14,0.26,0.1073966975776849,14,0.26,0.13069848020594105,14,0.26,0.5629468012963583,14,0.26,-1.3068504716629705
15,0.28,0.0693572861134243,15,0.28,0.12107911017004971,15,0.28,-0.4398878625324525,15,0.28,-0.26571519852600817,15,0.28,0.21007402835977523,15,0.28,0.6275327819200894,15,0.28,-1.1267097955413992
16,0.3,0.07759988855713873,16,0.3,0.3375307666066468,16,0.3,-0.06600442408645674,16,0.3,0.03781469513512897,16,0.3,0.1368272039481069,16,0.3,0.49522077164204026,16,0.3,-0.1909914389405668
17,0.32,0.07545213640627046,17,0.32,0.18778893852507578,17,0.32,-0.6581360557271303,17,0.32,-0.32118220994691554,17,0.32,0.04998016913297675,17,0.32,0.5397844397532278,17,0.32,0.8082638119281398
18,0.34,0.07163561345725285,18,0.34,0.4179676439103439,18,0.34,0.36331900095954467,18,0.34,0.08634918602847641,18,0.34,0.08961456523028366,18,0.34,0.3496410073606847,18,0.34,0.8738229859417109
19,0.36,0.05519788406794622,19,0.36,0.2762405627765937,19,0.36,-0.8693444710814058,19,0.36,-0.26142995364572114,19,0.36,0.06764325788087422,19,0.36,0.41882645341737046,19,0.36,0.8660882311870997
20,0.38,0.0773474725654398,20,0.38,0.5100852727904587,20,0.38,-2.208358901605089,20,0.38,0.5247464909474439,20,0.38,0.07199056032617487,20,0.38,0.30376279366387493,20,0.38,0.854033864866232
21,0.4,0.0886315769961861,21,0.4,0.2887236012121803,21,0.4,0.46951025384518286,21,0.4,-1.4762796478892843,21,0.4,0.03629411769682089,21,0.4,0.4471970152970152,21,0.4,0.5995291586477898
22,0.42,0.07311334249078731,22,0.42,0.2618135375351554,22,0.42,-0.12290509993862317,22,0.42,0.5346857202029578,22,0.42,0.038768400500539,22,0.42,0.2882575585662537,22,0.42,0.8819924209469451
23,0.44,0.07806088906751694,23,0.44,-0.028067943858577072,23,0.44,0.3726451431145704,23,0.44,0.6914739051012081,23,0.44,0.0388696555213708,23,0.44,0.5110177005704281,23,0.44,0.6429333340715535
24,0.46,0.27367589510025586,24,0.46,0.1535791708488421,24,0.46,0.04565945783195353,24,0.46,-0.3130845299765681,24,0.46,0.06527789338055376,24,0.46,0.2988817951003949,24,0.46,1.1796846428363248
25,0.48,0.048440960058077825,25,0.48,-0.11112443506978834,25,0.48,0.3539778910563535,25,0.48,0.24436681942789865,25,0.48,0.0717375340731239,25,0.48,0.4559844019204867,25,0.48,-0.7954277402686181
26,0.5,0.056797244354453956,26,0.5,0.05906079022706974,26,0.5,0.16458530084004172,26,0.5,-0.18790295118487746,26,0.5,0.10489712256296964,26,0.5,0.01028113273175424,26,0.5,0.21245297704491792
27,0.52,0.03944793043840537,27,0.52,0.09722636397595293,27,0.52,0.4118922703792938,27,0.52,0.15133073804697542,27,0.52,0.12987408158304203,27,0.52,0.7500695270218071,27,0.52,0.8992232704295157
28,0.54,0.04465546660814807,28,0.54,0.474636559733622,28,0.54,0.3110025559754363,28,0.54,-0.11215459515834228,28,0.54,0.15912890758032056,28,0.54,1.360856450969455,28,0.54,-0.32569834240777257
29,0.56,0.018959384729787556,29,0.56,-0.44481251085363405,29,0.56,0.5080691592097433,29,0.56,0.1731238368514766,29,0.56,0.14165158365585226,29,0.56,0.0706167941038469,29,0.56,0.2832257434840328
30,0.58,0.01593998483248564,30,0.58,0.08938575927863447,30,0.58,0.4612216843772422,30,0.58,0.04186051378734762,30,0.58,0.13262799094401836,30,0.58,0.6215494278748371,30,0.58,-0.4508961432822054
31,0.6,-0.007050582713898859,31,0.6,-0.5777233315922629,31,0.6,0.6230047985051734,31,0.6,0.2998588281883507,31,0.6,0.13770639756754155,31,0.6,0.3181706148995668,31,0.6,-0.03584271462793615
32,0.62,0.0012948562891857824,32,0.62,1.3943629297842428,32,0.62,0.45749097315486015,32,0.62,0.003609737675217094,32,0.62,0.15825198958097123,32,0.62,0.6071932700704339,32,0.62,-0.8892500670149305
33,0.64,0.0009790968491073422,33,0.64,-1.5599077474936278,33,0.64,0.27138142815663346,33,0.64,0.05271085493023347,33,0.64,0.2368482178789515,33,0.64,0.3966993527665944,33,0.64,-0.8499733830274979
34,0.66,0.05240422615860842,34,0.66,-1.1228228667628937,34,0.66,-0.023291133837932215,34,0.66,-0.24246224945669176,34,0.66,0.0709112977408076,34,0.66,0.5695731761524737,34,0.66,-1.4156476666622175
35,0.68,0.05861551650030144,35,0.68,0.4823503381453877,35,0.68,-0.10307295522331412,35,0.68,0.017032234212568737,35,0.68,0.06688516293608328,35,0.68,0.34212507071313497,35,0.68,-0.9641251462984476
36,0.7000000000000001,0.08022426916086073,36,0.7000000000000001,-0.0723464238588415,36,0.7000000000000001,-0.193093763739638,36,0.7000000000000001,-0.2589541207637655,36,0.7000000000000001,0.08232109819518192,36,0.7000000000000001,0.4653051237529494,36,0.7000000000000001,-0.1878518324648133
37,0.72,0.06364683737956556,37,0.72,0.2635134006072674,37,0.72,-0.14581548568868433,37,0.72,0.08030046144630629,37,0.72,0.06461857966902629,37,0.72,0.2563908822671747,37,0.72,0.925601922416641
38,0.74,0.0851739435888145,38,0.74,0.02555852515302111,38,0.74,-0.1982064482607351,38,0.74,-0.18212726150211994,38,0.74,0.05691093478508987,38,0.74,0.34383164789445486,38,0.74,0.6622394209174264
39,0.76,0.04672737825313053,39,0.76,0.17978884332083303,39,0.76,-0.1927888767037195,39,0.76,0.4742613431766312,39,0.76,0.02848355750029015,39,0.76,0.09104837714210329,39,0.76,1.0807420934171827
40,0.78,0.07618484412356658,40,0.78,0.13274037043756623,40,0.78,-0.21506650504785857,40,0.78,-1.5000581311292454,40,0.78,0.03789550879004139,40,0.78,0.23725868425080898,40,0.78,0.5630890189846662
41,0.8,0.06536510498741122,41,0.8,0.3288469078972929,41,0.8,-0.22997242576628887,41,0.8,0.970404183890442,41,0.8,0.05026229189544789,41,0.8,0.08390793515680547,41,0.8,0.8396223485237194
42,0.8200000000000001,0.09998855534598013,42,0.8200000000000001,0.3366762890864836,42,0.8200000000000001,-0.17761309473536088,42,0.8200000000000001,0.4902510549157798,42,0.8200000000000001,0.07336273609549607,42,0.8200000000000001,0.27165390838359305,42,0.8200000000000001,0.6515208197360108
43,0.84,0.02512764903047836,43,0.84,0.39934291507952263,43,0.84,0.04239272969781942,43,0.84,-0.21184409776836463,43,0.84,0.08046467847226817,43,0.84,0.06023062200751825,43,0.84,0.9997341135599211
44,0.86,0.19534424552994897,44,0.86,0.4110604247388717,44,0.86,0.24580847547738813,44,0.86,0.15213710063286098,44,0.86,0.11152136049211313,44,0.86,0.3206360281260623,44,0.86,0.5075203254000729
45,0.88,0.1691280707382417,45,0.88,0.4369965803062708,45,0.88,-0.42756986310362577,45,0.88,-0.10789279916206912,45,0.88,0.13125086349763487,45,0.88,0.10730261302388992,45,0.88,-0.7477239468188862
46,0.9,0.019772273026639628,46,0.9,0.27571013595380034,46,0.9,-0.11228717528051926,46,0.9,0.07450698309555177,46,0.9,0.15122404621446547,46,0.9,0.29866255904515304,46,0.9,1.1264034299034236
47,0.92,0.06860268496198828,47,0.92,0.05720799507288465,47,0.92,-0.6168737093859593,47,0.92,-0.08174885471660435,47,0.92,0.11192788272664406,47,0.92,-0.08402316315404532,47,0.92,0.05772297588031465
48,0.9400000000000001,0.031506160050959735,48,0.9400000000000001,0.06815344111261554,48,0.9400000000000001,0.6135722673594167,48,0.9400000000000001,0.13744417817003413,48,0.9400000000000001,0.13425062851094213,48,0.9400000000000001,0.39960125277280867,48,0.9400000000000001,0.027316914097917668
49,0.96,0.044849131363232014,49,0.96,-0.03457258509324041,49,0.96,-1.9398527838644704,49,0.96,0.1058387277546693,49,0.96,0.1293068496578643,49,0.96,1.202803046238516,49,0.96,-0.02441432605997021
50,0.98,0.012860047743494763,50,0.98,0.004454612504614258,50,0.98,-1.2449253872457369,50,0.98,0.24164658956760532,50,0.98,0.1846023004620664,50,0.98,-0.0020821790300108406,50,0.98,-0.5441804525558466
51,1.0,0.013335730174380136,51,1.0,-0.03614736062030677,51,1.0,0.48266388253288023,51,1.0,0.004171672325073232,51,1.0,0.19959276981159782,51,1.0,0.4077468317411903,51,1.0,-0.6880460908269065
52,1.02,-0.004813334525877933,52,1.02,0.46190227462344724,52,1.02,-0.13306270944947152,52,1.02,-0.07127600300560598,52,1.02,0.03718740149075474,52,1.02,0.2207684428540113,52,1.02,-1.147961935106541
53,1.04,0.010221652676796473,53,1.04,-0.33214447141193054,53,1.04,0.3778910533770852,53,1.04,-0.2150755148459183,53,1.04,0.07946287801682461,53,1.04,0.4140784179266861,53,1.04,-0.9819962160821919
54,1.06,0.02888986203226765,54,1.06,-0.15985054982282343,54,1.06,0.02366445972066851,54,1.06,-0.11170375671382439,54,1.06,0.07312230848925806,54,1.06,0.32473069267006155,54,1.06,-1.3138732404990365
55,1.08,0.06871276642632677,55,1.08,-0.518020594332748,55,1.08,0.376247574698224,55,1.08,-0.23536017330520284,55,1.08,0.05390873788238695,55,1.08,0.4029185415103165,55,1.08,-0.509639987825919
56,1.1,0.06949494514335446,56,1.1,0.46063495364171175,56,1.1,0.14800386654595657,56,1.1,-0.08817073716869038,56,1.1,0.036995460825709044,56,1.1,0.2953981372325416,56,1.1,0.43479188187659706
57,1.12,0.07694891387124708,57,1.12,0.24174394521199494,57,1.12,0.43448810773189045,57,1.12,-0.016876741943098517,57,1.12,0.03467740457473529,57,1.12,0.33514625444151996,57,1.12,1.062753138667316
58,1.1400000000000001,0.07395018879283033,58,1.1400000000000001,-2.4395782055239867,58,1.1400000000000001,0.28349005035580804,58,1.1400000000000001,0.11618420789444285,58,1.1400000000000001,0.03289701857031423,58,1.1400000000000001,0.24189393823479294,58,1.1400000000000001,0.735508106702095
59,1.16,0.07303811766326343,59,1.16,0.07050534240960046,59,1.16,0.533039805805451,59,1.16,-1.6299331420185759,59,1.16,0.0495169637717278,59,1.16,0.2531589874857765,59,1.16,1.0777543700293148
60,1.18,0.0593111924128262,60,1.18,-0.3836314500090244,60,1.18,0.42548821002070636,60,1.18,1.1760411751951427,60,1.18,0.06281781698966443,60,1.18,0.12769893457039416,60,1.18,0.46685880434271304
61,1.2,0.08103806354672553,61,1.2,0.14208879389542534,61,1.2,0.6223028982864808,61,1.2,-0.007418353833110069,61,1.2,0.08493805155789749,61,1.2,0.15301295288779326,61,1.2,0.9999374621567368
62,1.22,0.09138472557115196,62,1.22,-0.07937465481499707,62,1.22,0.3363858470740028,62,1.22,0.057913532141995155,62,1.22,0.11999009200752359,62,1.22,0.09828897941459175,62,1.22,0.5007118573710062
63,1.24,0.07143279645992223,63,1.24,0.19563377674188187,63,1.24,0.2157754735030917,63,1.24,-0.052695122963222776,63,1.24,0.13951104909651904,63,1.24,0.17872754236325705,63,1.24,1.2905503101903006
64,1.26,0.08109874676713416,64,1.26,0.040603876876381395,64,1.26,-0.06688320783134363,64,1.26,0.03522259456162397,64,1.26,0.15704376261796427,64,1.26,0.09320371469785683,64,1.26,-0.5114045164777662
65,1.28,0.2694344703024782,65,1.28,0.2894702944556722,65,1.28,-0.05932841142870345,65,1.28,-0.03465399450444883,65,1.28,0.12714078969078477,65,1.28,0.21654005618491987,65,1.28,-0.1879708565240963
66,1.3,0.05279215371646,66,1.3,0.1279627588469596,66,1.3,-0.18146567539724093,66,1.3,0.09521248155833517,66,1.3,0.14639144411099964,66,1.3,0.1566669696319426,66,1.3,0.997780252213158
67,1.32,0.06557793476841559,67,1.32,0.3463237790796231,67,1.32,-0.09336086456547496,67,1.32,0.04824100244137321,67,1.32,0.1313514222824421,67,1.32,0.1832695193569595,67,1.32,-0.385980842993968
68,1.34,0.04483827880102357,68,1.34,0.25840225103999603,68,1.34,-0.1951460433649668,68,1.34,0.2339686721976212,68,1.34,0.21952273876891648,68,1.34,0.016532460101566483,68,1.34,0.09807680438797944
69,1.36,0.053718891416356385,69,1.36,0.4305742303005794,69,1.36,-0.10521331878656945,69,1.36,0.12309000771503154,69,1.36,0.12258588788946469,69,1.36,0.13065574218695533,69,1.36,-0.5381113420713497
70,1.3800000000000001,0.027308203598198653,70,1.3800000000000001,0.21931365811251555,70,1.3800000000000001,-0.1404462375387991,70,1.3800000000000001,0.1186972169196035,70,1.3800000000000001,0.04822730638852809,70,1.3800000000000001,1.3155918408169927,70,1.3800000000000001,-0.5577310648461057
71,1.4000000000000001,0.021833509203167525,71,1.4000000000000001,0.13070381888546068,71,1.4000000000000001,-0.12204297373047211,71,1.4000000000000001,-0.16795379470583618,71,1.4000000000000001,0.093491712056804,71,1.4000000000000001,-0.006628332581132544,71,1.4000000000000001,-1.0892436968606534
72,1.42,-0.004705256758448362,72,1.42,-0.051385584457193656,72,1.42,-0.12281877859923553,72,1.42,0.008820989087937643,72,1.42,0.06796407903401828,72,1.42,0.3232492111350677,72,1.42,-1.0901739993954433
73,1.44,0.0022811884464442253,73,1.44,0.03232404912783667,73,1.44,0.06887012130544004,73,1.44,-0.18492063395313335,73,1.44,0.0687321968835124,73,1.44,0.18760508557355932,73,1.44,-1.2033256802641152
74,1.46,0.0060968066623648615,74,1.46,-0.11154625847703788,74,1.46,0.3445034105786603,74,1.46,0.04922104055824005,74,1.46,0.04450122158164084,74,1.46,0.37544294771004616,74,1.46,-1.006842562030583
75,1.48,0.06085300783114202,75,1.48,-0.021523137099539937,75,1.48,-0.30323357123076716,75,1.48,-0.17996070793620056,75,1.48,0.04342784582370613,75,1.48,0.26930362634362737,75,1.48,-0.2838356139632652
76,1.5,0.068924403251547,76,1.5,0.2381856950143916,76,1.5,-0.11852852278166047,76,1.5,0.40159082206078234,76,1.5,0.043610002618708364,76,1.5,0.38769877212518,76,1.5,0.6127810236590453
77,1.52,0.09021914360181592,77,1.52,0.1552363617591164,77,1.52,-0.537508376085612,77,1.52,-0.5162680269889347,77,1.52,0.0705828987858033,77,1.52,0.2695753578644725,77,1.52,0.7759579366008248
78,1.54,0.0737541754855503,78,1.54,-0.3582643151277813,78,1.54,0.5321159560076512,78,1.54,-0.8549364914680115,78,1.54,0.07626316556237271,78,1.54,0.33466820785431345,78,1.54,0.716213003296499
79,1.56,0.09180566038885657,79,1.56,0.0034530316847247436,79,1.56,-1.530729314128585,79,1.56,1.4441611699805474,79,1.56,0.10626943029825323,79,1.56,0.21195866567634578,79,1.56,0.7328882318063235
80,1.58,0.05376381299173409,80,1.58,-0.34648728934602924,80,1.58,-1.5596922095579655,80,1.58,-0.3824538931336473,80,1.58,0.12537605050375353,80,1.58,0.2588925312868994,80,1.58,0.3649056841364385
81,1.6,0.08784326787400086,81,1.6,1.305238612792926,81,1.6,0.5951176974467516,81,1.6,0.2772363164396923,81,1.6,0.14893802669596914,81,1.6,0.10146652924118178,81,1.6,0.6799766735249531
82,1.62,0.07537841593856202,82,1.62,-2.20009098763312,82,1.62,-0.2019483809808172,82,1.62,-0.21983478620442035,82,1.62,0.13873121820312267,82,1.62,0.13043064052802553,82,1.62,0.47709452429963856
83,1.6400000000000001,0.10826475408783262,83,1.6400000000000001,-0.7490606563258845,83,1.6400000000000001,0.49108141683595397,83,1.6400000000000001,0.14211483749387027,83,1.6400000000000001,0.13154825471287587,83,1.6400000000000001,0.05315692988018163,83,1.6400000000000001,0.9207884544650207
84,1.6600000000000001,0.03316143258277292,84,1.6600000000000001,0.07566205564229729,84,1.6600000000000001,-0.008771258916885002,84,1.6600000000000001,-0.1937097946074539,84,1.6600000000000001,0.13487882496905465,84,1.6600000000000001,0.11994142749295765,84,1.6600000000000001,-1.128281731959266
85,1.68,0.24495352651058744,85,1.68,-0.10841479107593117,85,1.68,0.47169307865805415,85,1.68,0.1531868974126495,85,1.68,0.15265987420583937,85,1.68,0.057990943814549355,85,1.68,0.6844154164855204
86,1.7,0.14264429155623987,86,1.7,0.13416750848065315,86,1.7,0.0749901244758322,86,1.7,-0.03034231137239766,86,1.7,0.21504474029358642,86,1.7,0.16908062838425772,86,1.7,0.2273533970923272
87,1.72,0.03123723941401783,87,1.72,0.08156241394862938,87,1.72,0.5079266839463755,87,1.72,0.3226125985633369,87,1.72,0.05992909476795274,87,1.72,0.1781434136010602,87,1.72,-0.4012478683382626
88,1.74,0.06720150063694405,88,1.74,0.19578364539693996,88,1.74,0.2041963432547274,88,1.74,-0.010056568876013517,88,1.74,0.0731468659903494,88,1.74,0.13579869220846477,88,1.74,-0.11895374616669478
89,1.76,0.04037708520819731,89,1.76,0.17791960492558123,89,1.76,0.6305080024088998,89,1.76,0.10508316398628431,89,1.76,0.08114801438670736,89,1.76,0.11766822653409312,89,1.76,-0.5592736569042829
90,1.78,0.0436952170964723,90,1.78,0.24390777427468072,90,1.78,0.36399427576095655,90,1.78,-0.29758988323405794,90,1.78,0.06777126784085881,90,1.78,-0.06592070177242365,90,1.78,-0.6965991798137122
91,1.8,0.017155963087142127,91,1.8,0.2777156541091879,91,1.8,0.7138984773512164,91,1.8,0.02247057004584428,91,1.8,0.055157572919178194,91,1.8,1.2552650511764847,91,1.8,-1.2322740906783636
92,1.82,0.009561117491008651,92,1.82,0.31022557437101245,92,1.82,0.2869770719174705,92,1.82,-0.32055410246608423,92,1.82,0.03972812529722185,92,1.82,0.22923355982183533,92,1.82,-1.0930910010057955
93,1.84,-0.0004424886994000771,93,1.84,0.31519766993825465,93,1.84,0.351185472582189,93,1.84,0.11222595104302216,93,1.84,0.045694589522880594,93,1.84,0.2043351623847828,93,1.84,-1.4657265119124832
94,1.86,0.006296901208821727,94,1.86,0.3437851930402769,94,1.86,-0.13441275195413405,94,1.86,-0.3501412172883952,94,1.86,0.05548724323250288,94,1.86,0.3169451127469258,94,1.86,-0.8842344829413263
95,1.8800000000000001,0.03932970078639743,95,1.8800000000000001,0.20426863121103195,95,1.8800000000000001,0.05334057598123754,95,1.8800000000000001,0.536597730361826,95,1.8800000000000001,0.08019200707692972,95,1.8800000000000001,0.29191275773107034,95,1.8800000000000001,0.044694440308190655
96,1.9000000000000001,0.06490386325651946,96,1.9000000000000001,0.0796042827416241,96,1.9000000000000001,-0.2793388801439194,96,1.9000000000000001,-1.0980306074804345,96,1.9000000000000001,0.08660047771603525,96,1.9000000000000001,0.40217254619081094,96,1.9000000000000001,0.8329621740599266
97,1.92,0.07652510250839835,97,1.92,0.09965731300055604,97,1.92,0.008796839349965037,97,1.92,0.047622237942070406,97,1.92,0.12022022102479896,97,1.92,0.342990946243766,97,1.92,0.6614544444213669
98,1.94,0.07139633498269567,98,1.94,0.053050764879591185,98,1.94,-0.27316840249486696,98,1.94,1.2457418416387658,98,1.94,0.13774801908540382,98,1.94,0.4050139504432895,98,1.94,0.8593468468383004
99,1.96,0.08149119957526241,99,1.96,0.024177943877917395,99,1.96,0.01127727199445541,99,1.96,-0.4277905969552521,99,1.96,0.16011337772670953,99,1.96,0.28777254276226094,99,1.96,0.4696959710249306
100,1.98,0.05496637319519948,100,1.98,-0.15217721837448792,100,1.98,-0.2652766387319959,100,1.98,0.32937595000917325,100,1.98,0.13388383247424834,100,1.98,0.32990007577670794,100,1.98,0.6320254979133548
101,2.0,0.07383591428185825,101,2.0,0.4055188080804768,101,2.0,0.02368036450809513,101,2.0,-0.24193780349686933,101,2.0,0.1378624580704545,101,2.0,0.2006310019224316,101,2.0,0.4672848690802763
102,2.02,0.07287403774808447,102,2.02,0.18316147400442945,102,2.02,-0.00820107761702011,102,2.02,0.18883639715743142,102,2.02,0.1250787939327376,102,2.02,0.2408592347566065,102,2.02,0.805550740301076
103,2.04,0.10214356701983045,103,2.04,-0.22754019164982942,103,2.04,0.4057759931683694,103,2.04,-0.17152329818242487,103,2.04,0.19232316191883417,103,2.04,0.05592033551315918,103,2.04,0.2515357043830216
104,2.06,0.031868750464280685,104,2.06,-0.24120071924576808,104,2.06,-0.47610126978784884,104,2.06,0.23639218370397558,104,2.06,0.1884544339044306,104,2.06,0.15998140746621273,104,2.06,-0.8796324684522421
105,2.08,0.17864315594975813,105,2.08,-0.027376270678918357,105,2.08,0.03587689334628515,105,2.08,0.005415697254767554,105,2.08,0.041153845054826395,105,2.08,0.046558209610899855,105,2.08,1.0889979466861737
106,2.1,0.19327549229283955,106,2.1,1.0148230368756084,106,2.1,-0.6382350144488182,106,2.1,0.37428328037880104,106,2.1,0.08974661562163713,106,2.1,0.22021214317731394,106,2.1,-0.25331579043229635
107,2.12,0.01881654620880146,107,2.12,-2.3542613783500883,107,2.12,0.7124877927529739,107,2.12,0.002513624410234567,107,2.12,0.06866452259872996,107,2.12,0.048016593784445,107,2.12,-0.16304027114846303
108,2.14,0.0760471138161626,108,2.14,-0.3656759300062474,108,2.14,-2.2975841741834224,108,2.14,0.15004536473718474,108,2.14,0.06777987147141971,108,2.14,0.28117898477499975,108,2.14,-0.4445248256060463
109,2.16,0.030905386011330107,109,2.16,-0.001440129367816733,109,2.16,-0.7752289848744215,109,2.16,-0.25849074254849747,109,2.16,0.04121054339062371,109,2.16,0.031614652649254935,109,2.16,-0.6315781363151274
110,2.18,0.052541129777643754,110,2.18,0.04115282674439037,110,2.18,0.2873856192587261,110,2.18,0.10937225568915138,110,2.18,0.04140220470340051,110,2.18,0.35617808632792475,110,2.18,-1.003220664308364
111,2.2,0.014245143171797895,111,2.2,0.10407799979719437,111,2.2,0.07415040021299062,111,2.2,-0.29332938923386226,111,2.2,0.042260672268755635,111,2.2,-0.24056002741620583,111,2.2,-1.267635016572312
112,2.22,0.017747712696840123,112,2.22,0.14641300885218847,112,2.22,0.21535397322237967,112,2.22,0.13879666072921387,112,2.22,0.0682273592233119,112,2.22,1.149121797918068,112,2.22,-1.3724809234796145
113,2.24,-0.00503457884097696,113,2.24,0.18590345806309372,113,2.24,0.2131147635977042,113,2.24,-0.2969038333119647,113,2.24,0.08506583058603649,113,2.24,0.7597947126175413,113,2.24,-1.4473019414329746
114,2.2600000000000002,0.010685756513806186,114,2.2600000000000002,0.23262329154735867,114,2.2600000000000002,0.19249995413208618,114,2.2600000000000002,0.5696114857813741,114,2.2600000000000002,0.09786911986333109,114,2.2600000000000002,0.06540238519796351,114,2.2600000000000002,-0.8055022149371645
115,2.2800000000000002,0.02727502251761414,115,2.2800000000000002,0.2824572169954288,115,2.2800000000000002,0.2848093341531727,115,2.2800000000000002,-1.4654725881656667,115,2.2800000000000002,0.13245939562047004,115,2.2800000000000002,0.45157306628076516,115,2.2800000000000002,0.3182592670539924
116,2.3000000000000003,0.06817532598004639,116,2.3000000000000003,0.2941288173140763,116,2.3000000000000003,0.2622288961685415,116,2.3000000000000003,0.4490378308154816,116,2.3000000000000003,0.14387180544924671,116,2.3000000000000003,0.26492754789151324,116,2.3000000000000003,0.8347919010349542
117,2.32,0.07103263335333684,117,2.32,0.3299941259552584,117,2.32,0.4253767170168896,117,2.32,0.7485717590761319,117,2.32,0.14160183336117374,117,2.32,0.495823372034177,117,2.32,0.7515722606953822
118,2.34,0.07741730651944216,118,2.34,0.35858669269977317,118,2.34,0.39668644728171965,118,2.34,-0.35159619496604555,118,2.34,0.12358133793533879,118,2.34,0.355730165158503,118,2.34,0.81594181251716
119,2.36,0.07515403103204826,119,2.36,0.3333843683627526,119,2.36,0.5566138371000404,119,2.36,0.18658536101745457,119,2.36,0.1371917782388118,119,2.36,0.4776735768321155,119,2.36,0.32445244671942225
120,2.38,0.06557003181468979,120,2.38,0.21833394862539443,120,2.38,0.4417623926648521,120,2.38,-0.19964589048810763,120,2.38,0.12651091780516374,120,2.38,0.3378286519463595,120,2.38,0.6910515770859339
121,2.4,0.06525712345940406,121,2.4,0.049089381456084144,121,2.4,0.4017428938045712,121,2.4,0.05582734756905009,121,2.4,0.21417881731194457,121,2.4,0.43678340359338824,121,2.4,0.3074319663238035
122,2.42,0.08049678943227478,122,2.42,0.014042388188442088,122,2.42,-0.008160746091825885,122,2.42,-0.1844196028900346,122,2.42,0.12238343357129945,122,2.42,0.30265413514085293,122,2.42,0.9419029274526817
123,2.44,0.09583576904369753,123,2.44,-0.07372967509306316,123,2.44,4.637182343891019e-05,123,2.44,0.12830986866963354,123,2.44,0.03460334569045107,123,2.44,0.36415882306649566,123,2.44,-0.46734462588776393
124,2.46,0.052045080124010025,124,2.46,-0.14134946220537506,124,2.46,-0.22901426424507962,124,2.46,-0.007418020764415546,124,2.46,0.08902520864318829,124,2.46,0.16673309997511135,124,2.46,-0.5160865080320305
125,2.48,0.12645391232530478,125,2.48,-0.15677203461895195,125,2.48,-0.0364799294915781,125,2.48,0.23641280214446814,125,2.48,0.05407880421040776,125,2.48,0.23170148536554835,125,2.48,0.8769982878200063
126,2.5,0.24260813572261836,126,2.5,0.421395940447475,126,2.5,-0.25171972106048635,126,2.5,-0.025435159771074047,126,2.5,0.06301467321948327,126,2.5,0.10686409865550706,126,2.5,-0.6688888644095259
127,2.52,0.021013331792246473,127,2.52,0.03800422253365515,127,2.52,-0.05237203784623766,127,2.52,-0.060883013082058714,127,2.52,0.028764495801149603,127,2.52,0.27248724944173097,127,2.52,-0.06337273187430396
128,2.54,0.07731961083337541,128,2.54,-0.29568278090478123,128,2.54,-0.27161785829998897,128,2.54,-0.2343243804777219,128,2.54,0.03166628303617125,128,2.54,0.11281562598525387,128,2.54,-0.7313417389426459
129,2.56,0.02927199097524666,129,2.56,-0.3795873967561273,129,2.56,-0.027620060967573953,129,2.56,-0.0451404304475874,129,2.56,0.03772552441695231,129,2.56,0.3304547824463322,129,2.56,-0.6720572466452649
130,2.58,0.05811275251851523,130,2.58,-0.12929417283999506,130,2.58,-0.19180217682258785,130,2.58,-0.22090056361094673,130,2.58,0.07455732153174575,130,2.58,0.08572818609382246,130,2.58,-1.2332543356879877
131,2.6,0.01145777158931423,131,2.6,0.8574575893937658,131,2.6,0.47691132344385995,131,2.6,-0.016869743397389583,131,2.6,0.05890709206764325,131,2.6,0.3590258704080477,131,2.6,-1.1702691173327278
132,2.62,0.021895668233571433,132,2.62,-2.471634979921715,132,2.62,-0.3457719796827958,132,2.62,-0.05444367933832956,132,2.62,0.09982978792760483,132,2.62,-0.15461838199569597,132,2.62,-1.4007634871990822
133,2.64,-0.013410994515281214,133,2.64,-0.2859822696685424,133,2.64,-0.028568336610707994,133,2.64,0.24060106739655035,133,2.64,0.12590669127731388,133,2.64,0.6141169075990537,133,2.64,-1.227195548455723
134,2.66,0.012096172818177667,134,2.66,-0.03641269398338465,134,2.66,-0.6314756066211277,134,2.66,-1.51220184936684,134,2.66,0.14522487914178653,134,2.66,1.095648538883216,134,2.66,-0.5481943616695166
135,2.68,0.007250094433547378,135,2.68,0.019275543928897763,135,2.68,0.417692049058256,135,2.68,1.2894669415466706,135,2.68,0.11137499108031809,135,2.68,-0.06695522335574955,135,2.68,0.5641279962104364
136,2.7,0.07160516450334252,136,2.7,0.01690474079284779,136,2.7,-0.9301236049966332,136,2.7,0.1482822890938052,136,2.7,0.11647921492748414,136,2.7,0.4538313697021768,136,2.7,0.6529345926557704
137,2.72,0.06056080531257292,137,2.72,0.11892232218866834,137,2.72,-2.1455001780458227,137,2.72,-0.024324768198387695,137,2.72,0.12587521973562718,137,2.72,0.16916619817330786,137,2.72,0.7337774181454121
138,2.74,0.0914205338742147,138,2.74,0.10943641463900196,138,2.74,0.4615385296956387,138,2.74,0.007194561638148036,138,2.74,0.13846294405490864,138,2.74,0.465887945120471,138,2.74,0.6751439426601662
139,2.7600000000000002,0.06799515977845955,139,2.7600000000000002,0.21626114151665307,139,2.7600000000000002,-0.09056820816373393,139,2.7600000000000002,-0.031360801149866474,139,2.7600000000000002,0.21382631498170385,139,2.7600000000000002,0.2560850650084449,139,2.7600000000000002,0.480949176358338
140,2.7800000000000002,0.0905235266314796,140,2.7800000000000002,0.18262793777162298,140,2.7800000000000002,0.34845887360623623,140,2.7800000000000002,-0.0001823488555060955,140,2.7800000000000002,0.10611909483351438,140,2.7800000000000002,0.4718293583535368,140,2.7800000000000002,0.6613385609896173
141,2.8000000000000003,0.048295752573272545,141,2.8000000000000003,0.24732233928499867,141,2.8000000000000003,0.11508412536550477,141,2.8000000000000003,0.01930666382269932,141,2.8000000000000003,0.051051989080917425,141,2.8000000000000003,0.26801518061869384,141,2.8000000000000003,0.5570711169544407
142,2.82,0.09124994251484637,142,2.82,0.22479457630780392,142,2.82,0.345602039878328,142,2.82,0.09594993391767143,142,2.82,0.07664447571751853,142,2.82,0.391307598726942,142,2.82,0.8685115549437559
143,2.84,0.0749095429050326,143,2.84,0.3155216077261405,143,2.84,0.20852386441777357,143,2.84,0.174901144964061,143,2.84,0.04709962704250178,143,2.84,0.21654995319828924,143,2.84,-0.8674983718667807
144,2.86,0.0981784098418191,144,2.86,0.22851721512983444,144,2.86,0.36307027252097596,144,2.86,0.18640965019375283,144,2.86,0.048496014574041894,144,2.86,0.33979918997460773,144,2.86,0.5514268895034287
145,2.88,0.036992818940636704,145,2.88,0.14233922541848623,145,2.88,0.32970184902718974,145,2.88,0.030210166807745433,145,2.88,0.024750524483620542,145,2.88,0.1312159669272684,145,2.88,0.3986286996223496
146,2.9,0.27284971145797526,146,2.9,-0.038774067077573776,146,2.9,0.46940829468911954,146,2.9,-0.12603674536756235,146,2.9,0.040285340917437205,146,2.9,0.2350611702611645,146,2.9,-0.49906539204406203
147,2.92,0.09884717903281838,147,2.92,-0.023946769969762263,147,2.92,0.4877385907856594,147,2.92,-0.1576415085652517,147,2.92,0.03944567573959842,147,2.92,0.09289787546596262,147,2.92,-0.05821650684237328
148,2.94,0.04505089532020755,148,2.94,-0.1299529036321249,148,2.94,0.567083598101222,148,2.94,-0.16618535440049514,148,2.94,0.07376370928169444,148,2.94,0.2681662909048864,148,2.94,-0.80235762714549
149,2.96,0.05537601185195574,149,2.96,-0.08246193828643066,149,2.96,0.4343493597134692,149,2.96,-0.197515865185414,149,2.96,0.07293326761058544,149,2.96,0.12294006071799327,149,2.96,-0.7307046817053305
150,2.98,0.044991476961401815,150,2.98,-0.12334612292614827,150,2.98,0.1655226001920982,150,2.98,-0.1621259378421754,150,2.98,0.1220059256516662,150,2.98,0.29732992784357143,150,2.98,-1.3475189692397869
151,3.0,0.031788372775050304,151,3.0,0.4548923387632196,151,3.0,-0.03481102489430955,151,3.0,0.012529974566615512,151,3.0,0.1325313653146661,151,3.0,0.14230635124244412,151,3.0,-1.168695091399792
152,3.02,0.016644483333139778,152,3.02,0.15168324230709165,152,3.02,-0.11627272117024688,152,3.02,-0.03796092762040107,152,3.02,0.14678356074285662,152,3.02,0.31473011875815604,152,3.02,-1.5989397782540642
153,3.04,-0.0036327023526648975,153,3.04,-0.08650986127165958,153,3.04,-0.12202386056968184,153,3.04,-1.4379737283272644,153,3.04,0.11650175307976611,153,3.04,0.052266517191735556,153,3.04,-1.039166350086191
154,3.06,0.0018882993127934938,154,3.06,-0.22207976651216485,154,3.06,-0.13982599225171718,154,3.06,1.273745592857689,154,3.06,0.13943044633327448,154,3.06,0.2600053894345302,154,3.06,-0.19709322277952043
155,3.08,-0.0013537681589639112,155,3.08,0.1834110819367355,155,3.08,-0.12395689693126517,155,3.08,-0.13945140333958886,155,3.08,0.12189302858276406,155,3.08,1.4253943246323988,155,3.08,0.7413149082281384
156,3.1,0.04555714358186518,156,3.1,0.9131353581850662,156,3.1,-0.186444585668898,156,3.1,0.007281787167650355,156,3.1,0.1783899965031723,156,3.1,0.1124721781812516,156,3.1,0.5571474711866196
157,3.12,0.05656200971989603,157,3.12,-2.372399650642782,157,3.12,-0.13311078513590865,157,3.12,-0.13456267415011322,157,3.12,0.2022267795179218,157,3.12,0.31989380229509895,157,3.12,0.8928787035683388
158,3.14,0.07884521595460209,158,3.14,-0.15531862455408862,158,3.14,-0.17088274736315612,158,3.14,-0.042226775351327725,158,3.14,0.03768119053944954,158,3.14,0.2882434936470574,158,3.14,0.47798101139748594
159,3.16,0.06281397560731536,159,3.16,0.03793492948457536,159,3.16,0.26255578499113674,159,3.16,-0.1021396998542103,159,3.16,0.07967138838438594,159,3.16,0.37330570288924914,159,3.16,0.632536037155885
160,3.18,0.08252373698728822,160,3.18,0.10745192770438954,160,3.18,-0.02501259518228323,160,3.18,0.02136947621512483,160,3.18,0.0760248487373232,160,3.18,0.35285940720367964,160,3.18,0.505757598806859
161,3.2,0.046569566668051655,161,3.2,0.08991723434898408,161,3.2,-0.3002476233227631,161,3.2,-0.0031459002669375043,161,3.2,0.05994475228918771,161,3.2,0.3669231628242195,161,3.2,0.9319525423711257
162,3.22,0.0798396352473065,162,3.22,0.13723151813700182,162,3.22,-0.34911212264741404,162,3.22,0.20587456367758095,162,3.22,0.047582061527966055,162,3.22,0.3646533700005746,162,3.22,0.5181066857686033
163,3.24,0.06814760143523316,163,3.24,0.11973053486836603,163,3.24,-0.2165350896605124,163,3.24,0.07760358936086721,163,3.24,0.03500848326952264,163,3.24,0.30931109295070414,163,3.24,-0.9503421116984533
164,3.2600000000000002,0.10685178434278195,164,3.2600000000000002,0.16517545513431223,164,3.2600000000000002,0.13011468088557399,164,3.2600000000000002,0.0833763761908404,164,3.2600000000000002,0.039837743843552965,164,3.2600000000000002,0.321653592542524,164,3.2600000000000002,0.9763944701078316
165,3.2800000000000002,0.027574451634768363,165,3.2800000000000002,0.17535323766631625,165,3.2800000000000002,-2.5787710765050895,165,3.2800000000000002,-0.17741373043762296,165,3.2800000000000002,0.04884008732386559,165,3.2800000000000002,0.2563735469475342,165,3.2800000000000002,-0.13933097603533462
166,3.3000000000000003,0.19510083278182316,166,3.3000000000000003,0.24248156058310713,166,3.3000000000000003,-0.10501267764326362,166,3.3000000000000003,-0.0005843049416972586,166,3.3000000000000003,0.0795543656261985,166,3.3000000000000003,0.2328677414203233,166,3.3000000000000003,-0.25348050724794513
167,3.3200000000000003,0.18166030125832236,167,3.3200000000000003,0.21293253068146367,167,3.3200000000000003,0.0642729874715867,167,3.3200000000000003,-0.21631873608425528,167,3.3200000000000003,0.0835223927663044,167,3.3200000000000003,0.09413028507606298,167,3.3200000000000003,-0.322351598005371
168,3.34,0.023719478623746973,168,3.34,0.30402437981449926,168,3.34,0.14240600023963343,168,3.34,0.04329744371650764,168,3.34,0.11612688965413229,168,3.34,0.14872287038714824,168,3.34,-0.7395998587053687
169,3.36,0.07085300752815853,169,3.36,0.2341612508915534,169,3.36,0.15783123182301612,169,3.36,-0.2351722948601004,169,3.36,0.13619989815689187,169,3.36,0.1309969275710108,169,3.36,-0.9232050958942666
170,3.38,0.03452036528183039,170,3.38,0.08738631756198884,170,3.38,0.20074622934070588,170,3.38,0.40164513483463976,170,3.38,0.1565563910314358,170,3.38,0.2897357979912361,170,3.38,-1.3112219061339836
171,3.4,0.046481328244022076,171,3.4,-0.1059020386930962,171,3.4,0.22503422349644686,171,3.4,-0.6398691275408857,171,3.4,0.1181073624469407,171,3.4,0.20582334376852074,171,3.4,-1.2774967653685143
172,3.42,0.016955627056701172,172,3.42,-0.05194850087753232,172,3.42,0.2599807880648973,172,3.42,-0.6678556907995175,172,3.42,0.14092161362329003,172,3.42,0.3987598404502466,172,3.42,-1.5085223391851914
173,3.44,0.01332039380169632,173,3.44,-0.14766606563368742,173,3.44,0.31125054898532256,173,3.44,1.462475362552388,173,3.44,0.11467635764040503,173,3.44,0.19839883896247812,173,3.44,-0.7549373137662584
174,3.46,-0.000776935008860367,174,3.46,-0.10265109288094072,174,3.46,0.37690039590827507,174,3.46,-0.48159287489467945,174,3.46,0.2188784964247318,174,3.46,0.4481518523384939,174,3.46,0.10437418059807486
175,3.48,0.008755565956558728,175,3.48,-0.1545784742849378,175,3.48,0.44152901711894516,175,3.48,0.2705389702140523,175,3.48,0.14597801633547877,175,3.48,-0.09175990759975762,175,3.48,0.7701107302392107
176,3.5,0.031498270445178805,176,3.5,0.4373999677291222,176,3.5,0.4746311174770081,176,3.5,-0.31357934867786724,176,3.5,0.0255029149045098,176,3.5,1.3530641118170503,176,3.5,0.5726159163283875
177,3.52,0.06781582475098062,177,3.52,-0.0013178966117660218,177,3.52,0.4629581865187148,177,3.52,0.12662081872249206,177,3.52,0.08951362240482043,177,3.52,0.6349647463070235,177,3.52,0.8236244884468601
178,3.54,0.07586791308454958,178,3.54,-0.21941149091353468,178,3.54,0.21626260978754017,178,3.54,-0.2706869660095773,178,3.54,0.05653621942543181,178,3.54,0.19364236335278623,178,3.54,0.49531236180457067
179,3.56,0.07367094573147695,179,3.56,-0.39382284996966294,179,3.56,0.029574428635745935,179,3.56,0.17076580278399545,179,3.56,0.059795356792017494,179,3.56,0.4619466336513584,179,3.56,0.7248741158827807
180,3.58,0.08105107704986994,180,3.58,0.1463696236338775,180,3.58,-0.11437327944141183,180,3.58,-0.08059873884601508,180,3.58,0.015977086236719548,180,3.58,0.3220566607653858,180,3.58,0.4624746282838505
181,3.6,0.06537573963237996,181,3.6,0.7258611480996957,181,3.6,-0.10256859407673714,181,3.6,0.3035854917664289,181,3.6,0.033855971696887116,181,3.6,0.4756726068093287,181,3.6,0.8179270994278414
182,3.62,0.06576560983769647,182,3.62,-2.492178417945094,182,3.62,-0.1387085413180834,182,3.62,-0.05559247728360723,182,3.62,0.03919339500666604,182,3.62,0.36328654927676685,182,3.62,0.3696387825731339
183,3.64,0.08021498597787997,183,3.64,-0.06166788241486438,183,3.64,-0.10310916086650669,183,3.64,0.09235331653266546,183,3.64,0.06084540388045216,183,3.64,0.46335022022345435,183,3.64,-0.9743629141829934
184,3.66,0.09917490254236372,184,3.66,-0.08694606839852742,184,3.66,-0.16004857602515307,184,3.66,-0.3739192986397529,184,3.66,0.06354931867335567,184,3.66,0.33057380986994606,184,3.66,0.9667241253511891
185,3.68,0.05310422327486901,185,3.68,0.146983405315724,185,3.68,-0.11517470128070707,185,3.68,0.042297713290761985,185,3.68,0.10049558343519001,185,3.68,0.38603939672702975,185,3.68,-0.1951449380081277
186,3.7,0.11797983123406765,186,3.7,0.040598879386219554,186,3.7,-0.1410770738545144,186,3.7,-0.367451798612931,186,3.7,0.12478110022836784,186,3.7,0.24384714689871154,186,3.7,-0.2200929103983092
187,3.72,0.25387585993161405,187,3.72,0.20497549334107867,187,3.72,0.29764109017229196,187,3.72,0.12099457054703563,187,3.72,0.12129918149499086,187,3.72,0.2704559804522353,187,3.72,-0.33594959567600946
188,3.74,0.03188739807493851,188,3.74,0.1193058634416638,188,3.74,-0.020592977696024837,188,3.74,-0.3648514830408876,188,3.74,0.14333818146614086,188,3.74,0.0816938960322512,188,3.74,-0.6236204004654462
189,3.7600000000000002,0.07458267812834607,189,3.7600000000000002,0.2908600124171782,189,3.7600000000000002,-0.2847813901515459,189,3.7600000000000002,0.5802060080705909,189,3.7600000000000002,0.12421157141559244,189,3.7600000000000002,0.14372166880623102,189,3.7600000000000002,-0.8328276834362787
190,3.7800000000000002,0.03623820262106311,190,3.7800000000000002,0.28095004895868,190,3.7800000000000002,-0.3401899107711595,190,3.7800000000000002,-1.2425651648083988,190,3.7800000000000002,0.13272862919301612,190,3.7800000000000002,0.027614098933683624,190,3.7800000000000002,-1.24740174231503
191,3.8000000000000003,0.05545114496504957,191,3.8000000000000003,0.41842854588782397,191,3.8000000000000003,-0.2039264364960252,191,3.8000000000000003,-0.0006253086216931803,191,3.8000000000000003,0.13108444535833855,191,3.8000000000000003,0.17112477881958002,191,3.8000000000000003,-1.1315729405575619
192,3.8200000000000003,0.01765170140663939,192,3.8200000000000003,0.29147387787445606,192,3.8200000000000003,0.15259680748075152,192,3.8200000000000003,1.0999453245050441,192,3.8200000000000003,0.21286807786760692,192,3.8200000000000003,0.008725025597963757,192,3.8200000000000003,-1.401060123058486
193,3.84,0.021222634522854493,193,3.84,0.45960886558199526,193,3.84,-2.524212811582425,193,3.84,-0.4325257202172756,193,3.84,0.14187991158081206,193,3.84,0.21496687534868747,193,3.84,-0.695300032751506
194,3.86,-0.007670837011156816,194,3.86,0.2824997882753589,194,3.86,-0.06145744263895697,194,3.86,0.273244119279358,194,3.86,0.043811930469278365,194,3.86,-0.028398099898266773,194,3.86,0.1789851889617451
195,3.88,0.010132135700614569,195,3.88,0.21641707627442958,195,3.88,0.08243128241999458,195,3.88,-0.24763655578775443,195,3.88,0.07858321041524119,195,3.88,0.24325942279688836,195,3.88,0.8367593944623077
196,3.9,0.010800512505240185,196,3.9,-0.014510574169823084,196,3.9,0.16579280348754516,196,3.9,0.16143130147723986,196,3.9,0.057626833543556674,196,3.9,-0.2736478291357945,196,3.9,0.624698242903244
197,3.92,0.07075222592318416,197,3.92,0.15048616705186613,197,3.92,0.17438209488533313,197,3.92,-0.20495985309095666,197,3.92,0.058415076167326815,197,3.92,0.5408616401730537,197,3.92,0.9447448852389841
198,3.94,0.06780717920090694,198,3.94,-0.04280720135897823,198,3.94,0.22572714114682815,198,3.94,0.17830505002370325,198,3.94,0.03060370454455941,198,3.94,0.959284330346083,198,3.94,0.38335729244958483
199,3.96,0.09020257121061975,199,3.96,0.07633309851309887,199,3.96,0.22898348368880395,199,3.96,-0.023965124768472304,199,3.96,0.03510794311744505,199,3.96,-0.22409076587918106,199,3.96,0.7786284589951302
200,3.98,0.07001075815030919,200,3.98,-0.11476336035567081,200,3.98,0.28499580407345537,200,3.98,0.3243898643881581,200,3.98,0.04336773349459094,200,3.98,0.3177744154611083,200,3.98,0.39586236646578743
201,4.0,0.09256035697824828,201,4.0,0.5630130756861773,201,4.0,0.31257403068980566,201,4.0,-0.04264103601562739,201,4.0,0.06732817281589569,201,4.0,-0.006473241571551219,201,4.0,1.0362467356604
202,4.0200000000000005,0.052782160817592974,202,4.0200000000000005,-0.191804281310935,202,4.0200000000000005,0.40566627544459605,202,4.0200000000000005,0.06333307761752953,202,4.0200000000000005,0.07414007705659424,202,4.0200000000000005,0.3206159716708582,202,4.0200000000000005,-0.1649713007095538
203,4.04,0.0873090974412266,203,4.04,-0.06864416279279126,203,4.04,0.4385865247677965,203,4.04,-0.2923000431883031,203,4.04,0.10408228192089916,203,4.04,0.10874237624207235,203,4.04,-0.8901844955107647
204,4.0600000000000005,0.07534308961328713,204,4.0600000000000005,-0.520838645694368,204,4.0600000000000005,0.5026481459170948,204,4.0600000000000005,0.031618297556780764,204,4.0600000000000005,0.1317223831856692,204,4.0600000000000005,0.33145804728587414,204,4.0600000000000005,0.9894335859189621
205,4.08,0.10987519482303161,205,4.08,0.4667369930396139,205,4.08,0.45414206010303054,205,4.08,-0.33754042126275663,205,4.08,0.14862875322849156,205,4.08,0.10881203197560314,205,4.08,-0.3451316440158799
206,4.1,0.02945050060766545,206,4.1,0.3467816725642684,206,4.1,0.24246772591737287,206,4.1,0.041914959974802164,206,4.1,0.13940125701898864,206,4.1,0.2621971526309519,206,4.1,0.00641470934172893
207,4.12,0.20107151734204814,207,4.12,-2.3644430510189554,207,4.12,0.00928683392326325,207,4.12,-0.3594863029341068,207,4.12,0.1251866622030319,207,4.12,0.06606634329856201,207,4.12,-0.23088585363502362
208,4.14,0.16586231835108756,208,4.14,0.20724462274715538,208,4.14,-0.0897704451176798,208,4.14,0.4508544564421974,208,4.14,0.13927594321827494,208,4.14,0.17102283311058467,208,4.14,-0.423817283502622
209,4.16,0.024599362380188523,209,4.16,-0.13489164076340443,209,4.16,-0.1121792290927828,209,4.16,-1.0800783779101026,209,4.16,0.13789472120143959,209,4.16,-0.04765996054334589,209,4.16,-0.8421991953871895
210,4.18,0.07025489162854923,210,4.18,0.2227420272222603,210,4.18,-0.1319888390973458,210,4.18,-0.3125213485884712,210,4.18,0.23439976284708425,210,4.18,0.0339470729885066,210,4.18,-1.1696599005202726
211,4.2,0.033224686388269566,211,4.2,0.05534103859052255,211,4.2,-0.1703310484044892,211,4.2,1.1358512253256186,211,4.2,0.07673515583007805,211,4.2,-0.1252653121568404,211,4.2,-1.2085001670329185
212,4.22,0.04548570493538692,212,4.22,0.29359683835657846,212,4.22,-0.16644347552155708,212,4.22,-0.5000896135991685,212,4.22,0.050524310813526145,212,4.22,0.04387496216512962,212,4.22,-1.3665511360443408
213,4.24,0.016410906413646037,213,4.24,0.16320978239452824,213,4.24,-0.18723204725929335,213,4.24,0.2425118960710349,213,4.24,0.08526665047192866,213,4.24,-0.10884475185558418,213,4.24,-0.6517733306496796
214,4.26,0.013367206043595401,214,4.26,0.3468429781394422,214,4.26,-0.13285692011342964,214,4.26,-0.3274065929498931,214,4.26,0.059583325611042674,214,4.26,0.03852574609211039,214,4.26,0.3627705489518425
215,4.28,-0.0037697217224174698,215,4.28,0.24915613410517928,215,4.28,0.15764333406877368,215,4.28,0.11679528816377825,215,4.28,0.06335432260996308,215,4.28,-0.10025437150890718,215,4.28,0.7567276331705746
216,4.3,0.008415226399537337,216,4.3,0.3544570551067295,216,4.3,0.18366685882531533,216,4.3,-0.21715875460112152,216,4.3,0.03759453178554741,216,4.3,0.028342252672095825,216,4.3,0.630340302274292
217,4.32,0.030498563158229654,217,4.32,0.24781506508665838,217,4.32,-0.37367126450384347,217,4.32,0.17289802000552723,217,4.32,0.04335959809025879,217,4.32,-0.17344713172284296,217,4.32,0.864045636642537
218,4.34,0.0668198513207318,218,4.34,0.39211785179808006,218,4.34,-0.17345395249049952,218,4.34,-0.07862330672161044,218,4.34,0.04917792779979563,218,4.34,-0.12486780793218567,218,4.34,0.4287173890906902
219,4.36,0.06997367484717577,219,4.36,0.2526334998298632,219,4.36,-0.4618024264652471,219,4.36,0.32460218942884544,219,4.36,0.07757395184345812,219,4.36,1.161621649636175,219,4.36,0.7888844992997858
220,4.38,0.0734332940460022,220,4.38,0.1821925537608575,220,4.38,0.48181284308920896,220,4.38,-0.05310671937375806,220,4.38,0.08209384063171246,220,4.38,-0.08451150986508037,220,4.38,0.4375312829680841
221,4.4,0.07631378122800157,221,4.4,-0.0048555558523262245,221,4.4,-2.3140509870373442,221,4.4,0.09068518477619555,221,4.4,0.10884867219517132,221,4.4,-0.016470833258438584,221,4.4,1.1441492618797038
222,4.42,0.06324216577836875,222,4.42,0.05435865545986208,222,4.42,-0.6389851392419105,222,4.42,-0.2592969964368381,222,4.42,0.13206476669554884,222,4.42,0.024270339644212834,222,4.42,-0.13813928666148179
223,4.44,0.06009683332567683,223,4.44,-0.051490068061657124,223,4.44,0.28911978935294264,223,4.44,0.13548536889949622,223,4.44,0.15664125631281609,223,4.44,0.021094548302750208,223,4.44,-0.28839110408849006
224,4.46,0.0751525145377546,224,4.46,-0.007948512935865047,224,4.46,-0.01869457376271185,224,4.46,-0.27176536699700693,224,4.46,0.13793247020581983,224,4.46,0.10629005145758763,224,4.46,1.221018558511599
225,4.48,0.08915913006109155,225,4.48,-0.1239813425809658,225,4.48,0.2842441379644587,225,4.48,0.19098149452191895,225,4.48,0.13557152102354472,225,4.48,0.039366325703584816,225,4.48,-0.35590693085582903
226,4.5,0.058864719894904355,226,4.5,0.39213164906116454,226,4.5,0.09335474820465779,226,4.5,-0.25439123898546684,226,4.5,0.1275012910814742,226,4.5,0.1109383228546375,226,4.5,0.12462827711309796
227,4.5200000000000005,0.09466464126022323,227,4.5200000000000005,0.19077731798853026,227,4.5200000000000005,0.30924438749110705,227,4.5200000000000005,0.6161851290607383,227,4.5200000000000005,0.15374698546397472,227,4.5200000000000005,-0.022779152597547862,227,4.5200000000000005,-0.4419322281560546
228,4.54,0.24753754061177172,228,4.54,-0.24205605415683853,228,4.54,0.1844653397654287,228,4.54,-1.2904590936590057,228,4.54,0.2293915246894179,228,4.54,0.049854702063650905,228,4.54,-0.36462181549075035
229,4.5600000000000005,0.038237464279296196,229,4.5600000000000005,-0.1908705640316234,229,4.5600000000000005,0.39427235724080734,229,4.5600000000000005,0.4966221023014465,229,4.5600000000000005,0.05415034396055668,229,4.5600000000000005,-0.09809361963967499,229,4.5600000000000005,-0.9180059387008045
230,4.58,0.069399713766579,230,4.58,-0.12190266729998231,230,4.58,0.30631397106458597,230,4.58,0.9710431572916177,230,4.58,0.06225336765953134,230,4.58,-0.017920643898023957,230,4.58,-1.0436317437817575
231,4.6000000000000005,0.038689510457723696,231,4.6000000000000005,1.093230530661692,231,4.6000000000000005,0.49912011509896886,231,4.6000000000000005,-0.361803197990744,231,4.6000000000000005,0.07388436023461464,231,4.6000000000000005,-0.22835235731702216,231,4.6000000000000005,-1.087210498349152
232,4.62,0.0536923175163728,232,4.62,-2.1455432314851577,232,4.62,0.40675988514916667,232,4.62,0.2677346869378594,232,4.62,0.059603326431521386,232,4.62,-0.09309321079877927,232,4.62,-1.096783144814858
233,4.64,0.022257505458050376,233,4.64,-0.45213359813097165,233,4.64,0.5396761321622174,233,4.64,-0.2162380864227153,233,4.64,0.0478586200538934,233,4.64,-0.2549687641152042,233,4.64,-0.29545280138944047
234,4.66,0.02119821767496879,234,4.66,0.18808120092579322,234,4.66,0.2315854195501043,234,4.66,0.13934382300137177,234,4.66,0.02502284436270195,234,4.66,-0.04340711178633582,234,4.66,0.6386754126369275
235,4.68,-0.007286934783423983,235,4.68,0.027873216462148638,235,4.68,0.13297434498819513,235,4.68,-0.14381117701038984,235,4.68,0.03430830966035534,235,4.68,-0.2628934211135513,235,4.68,0.9342235846633891
236,4.7,0.009247790492543765,236,4.7,0.2336899850966609,236,4.7,-0.11168548773608357,236,4.7,0.1809626536490682,236,4.7,0.042631079958609853,236,4.7,0.017663418793877138,236,4.7,0.8213837736232329
237,4.72,0.009079062814372946,237,4.72,0.17042606675491914,237,4.72,-0.01747097688105419,237,4.72,0.019668929997135022,237,4.72,0.06392766252146315,237,4.72,-0.302272768296683,237,4.72,0.961190774951283
238,4.74,0.06483030129261716,238,4.74,0.3241807538500494,238,4.74,-0.21070521199026396,238,4.74,0.3383185351613942,238,4.74,0.08410523550683395,238,4.74,0.09058927612713794,238,4.74,0.6110348027694796
239,4.76,0.06674890139428524,239,4.76,0.22719058110772736,239,4.76,-0.07745503385315781,239,4.76,-0.008335068885219303,239,4.76,0.1180917038224752,239,4.76,-0.5598337654459599,239,4.76,0.9097597012482747
240,4.78,0.08745517361557673,240,4.78,0.34514321336201437,240,4.78,-0.2617705733841873,240,4.78,0.029194415265869814,240,4.78,0.13314308412035358,240,4.78,0.6928022776995637,240,4.78,0.5362747295276847
241,4.8,0.06896773003299848,241,4.8,0.22031283934978316,241,4.8,-0.05872528747030477,241,4.8,-0.3014555679354666,241,4.8,0.1534321325302595,241,4.8,0.5426084901774922,241,4.8,1.1862546297592529
242,4.82,0.08872365235064784,242,4.82,0.34538645409379826,242,4.82,-0.12005218673434394,242,4.82,0.02140519571658586,242,4.82,0.1282766748992626,242,4.82,-0.3048864398174787,242,4.82,-0.26947975422956594
243,4.84,0.05222608125583103,243,4.84,0.29715827070507167,243,4.84,0.4001811569756872,243,4.84,-0.2952593478129562,243,4.84,0.14482334602901525,243,4.84,0.07523967015510828,243,4.84,-0.5176299250149723
244,4.86,0.08435689774880292,244,4.86,0.31416041193021205,244,4.86,-0.41479595993670454,244,4.86,0.09336847545524934,244,4.86,0.12768543393731746,244,4.86,-0.11161821619731087,244,4.86,1.1698819031124694
245,4.88,0.07404121339642655,245,4.88,0.03697604158069046,245,4.88,-0.07983432096487743,245,4.88,-0.2431658726926489,245,4.88,0.17484064254916962,245,4.88,0.06915970680291779,245,4.88,-0.350710048928438
246,4.9,0.10485059674351187,246,4.9,0.19949429014157816,246,4.9,-0.6779967373834361,246,4.9,0.5583961852739378,246,4.9,0.18965507852859895,246,4.9,-0.009139879820775893,246,4.9,0.13312697424256362
247,4.92,0.03187116307364755,247,4.92,0.018678884240590058,247,4.92,0.44164856955789555,247,4.92,-1.4106390776854516,247,4.92,0.06070442435405206,247,4.92,0.06016941594293196,247,4.92,-0.44292123010772116
248,4.94,0.24771494002886563,248,4.94,0.07330192428847271,248,4.94,-1.122949660701812,248,4.94,0.5377191935609882,248,4.94,0.06345592233914658,248,4.94,-0.02292191259864992,248,4.94,-0.20012916098596112
249,4.96,0.14638601935233056,249,4.96,-0.12037340389462695,249,4.96,-2.0617458152244477,249,4.96,0.8234989646530103,249,4.96,0.06591845386604964,249,4.96,-0.03812353896835072,249,4.96,-0.9503264895247382
250,4.98,0.03242487528900124,250,4.98,-0.08279421630219584,250,4.98,0.5106144004670574,250,4.98,-0.326266237536304,250,4.98,0.049760375577261554,250,4.98,-0.07232758384865604,250,4.98,-1.0162632473013165
251,5.0,0.07237801713911254,251,5.0,-0.01708834404845862,251,5.0,-0.18805647150371146,251,5.0,0.2676548359326579,251,5.0,0.047564491066425,251,5.0,-0.11712177785656298,251,5.0,-1.3365876523454843
252,5.0200000000000005,0.03949052808573042,252,5.0200000000000005,0.5753476680868386,252,5.0200000000000005,0.39517547061143365,252,5.0200000000000005,-0.20232078036884069,252,5.0200000000000005,0.033379498880624275,252,5.0200000000000005,-0.17743864780119792,252,5.0200000000000005,-1.198602562639374
253,5.04,0.04737054380663511,253,5.04,-0.3364420940932865,253,5.04,0.01492924555373,253,5.04,0.1434925576978858,253,5.04,0.044608443715237325,253,5.04,-0.2506472442365229,253,5.04,-0.5882094550103126
254,5.0600000000000005,0.014439742901088242,254,5.0600000000000005,0.053386209572689906,254,5.0600000000000005,0.36276808654995557,254,5.0600000000000005,-0.14976740763294652,254,5.0600000000000005,0.04640024351155628,254,5.0600000000000005,-0.16855587429371788,254,5.0600000000000005,0.517549518023659
255,5.08,0.007314761617825741,255,5.08,-0.6678834458301497,255,5.08,0.12303535925656603,255,5.08,0.2047062149942001,255,5.08,0.07921569761760545,255,5.08,-0.23416335502148192,255,5.08,0.6544129374403588
256,5.1000000000000005,-0.007738212269897007,256,5.1000000000000005,1.1661864513748141,256,5.1000000000000005,0.4225055021821379,256,5.1000000000000005,0.019866694391133137,256,5.1000000000000005,0.07703005816904884,256,5.1000000000000005,-0.1279312715180467,256,5.1000000000000005,0.7344822396886314
257,5.12,0.0051481461502094475,257,5.12,-1.0969765105833182,257,5.12,0.22739153956209157,257,5.12,0.3390934837110453,257,5.12,0.13218421368725292,257,5.12,-0.27145506402747166,257,5.12,0.7968613914010239
258,5.14,0.03299190556955479,258,5.14,-1.7928720585842028,258,5.14,0.5144894543421855,258,5.14,-0.03179685279429168,258,5.14,0.13800292961942198,258,5.14,-0.07422214112210407,258,5.14,0.5278497767824624
259,5.16,0.06808719638749514,259,5.16,0.39418635448537537,259,5.16,0.35234863187727083,259,5.16,0.0680758480319239,259,5.16,0.15309501086328373,259,5.16,-0.30756029565379106,259,5.16,0.8399221719695713
260,5.18,0.07331442836931999,260,5.18,-0.3375687579826564,260,5.18,0.5700253632519117,260,5.18,-0.2755784788703695,260,5.18,0.11496922973488514,260,5.18,0.010212669481210312,260,5.18,0.5217109771231936
261,5.2,0.07691157089087752,261,5.2,0.2709707333055872,261,5.2,0.2646756316764325,261,5.2,0.07060958101606356,261,5.2,0.14467398201994458,261,5.2,-0.5687781323517521,261,5.2,1.0778245764797854
262,5.22,0.0777661187972842,262,5.22,-0.069254032556793,262,5.22,0.1853255711000499,262,5.22,-0.3238947209746235,262,5.22,0.12421108490647115,262,5.22,0.6256769995827685,262,5.22,-0.8431059634992581
263,5.24,0.07129361824298447,263,5.24,0.3094388945735855,263,5.24,-0.17719407130077636,263,5.24,0.09445714760545912,263,5.24,0.2153715027861019,263,5.24,0.6061517726056052,263,5.24,0.2801237667535665
264,5.26,0.058765877679151785,264,5.26,0.05074846466447037,264,5.26,-0.027613702127043855,264,5.26,-0.3319490297570105,264,5.26,0.16417153976935406,264,5.26,-0.390479773577587,264,5.26,0.8324053217389863
265,5.28,0.07728272446403216,265,5.28,0.3438096817503558,265,5.28,-0.23936164190890918,265,5.28,0.49740929466762873,265,5.28,0.04780018616463934,265,5.28,0.12791301549157455,265,5.28,-0.413938932196111
266,5.3,0.09052275862344916,266,5.3,0.136662415143048,266,5.3,-0.05638725857854182,266,5.3,-1.402361960610612,266,5.3,0.10490979060763231,266,5.3,-0.16389049689283283,266,5.3,0.09227647967445904
267,5.32,0.06559469877800246,267,5.32,0.41056365232783487,267,5.32,-0.2759916883370162,267,5.32,0.2523053336015909,267,5.32,0.0822719552867922,267,5.32,0.11070842949042499,267,5.32,-0.5937607592211078
268,5.34,0.08452294485552937,268,5.34,0.2131337776841762,268,5.34,-0.07092787747563478,268,5.34,0.8536747984649027,268,5.34,0.08771033974050868,268,5.34,-0.07061697092686811,268,5.34,-0.4811968010072258
269,5.36,0.25092356559505585,269,5.36,0.4552158990093456,269,5.36,-0.03388851268582585,269,5.36,-0.4509751486763312,269,5.36,0.07744180786857435,269,5.36,0.113156112961818,269,5.36,-1.1773705177434282
270,5.38,0.045145959017794286,270,5.38,0.13888237035824297,270,5.38,0.3644596270666722,270,5.38,0.19723186712466895,270,5.38,0.06568523884295933,270,5.38,-0.05329453533037434,270,5.38,-0.9768709210330687
271,5.4,0.05788166258380765,271,5.4,0.14684117420421272,271,5.4,-0.50506130965984,271,5.4,-0.2955738002171525,271,5.4,0.0741060893951312,271,5.4,0.0663693546353577,271,5.4,-1.331519045297312
272,5.42,0.04002680212459719,272,5.42,-0.11921407808737773,272,5.42,-0.030624124015745085,272,5.42,0.08412621214610407,272,5.42,0.09107392747635328,272,5.42,-0.06440550261042798,272,5.42,-0.8924283568704204
273,5.44,0.04857811749690361,273,5.44,0.06530016765842678,273,5.44,-0.6884847401732915,273,5.44,-0.19395752350097337,273,5.44,0.11980962080732681,273,5.44,0.030898652796442168,273,5.44,-0.10409260665798567
274,5.46,0.022726556910144764,274,5.46,-0.18671029302020584,274,5.46,0.6135012215924729,274,5.46,0.14730316117381576,274,5.46,0.13779278434820647,274,5.46,-0.13043710111255952,274,5.46,0.9231512983424952
275,5.48,0.019445000225256567,275,5.48,-0.017647127669304128,275,5.48,-1.891394352513221,275,5.48,-0.017758335636644536,275,5.48,0.1825364506813173,275,5.48,-0.08355375648433733,275,5.48,0.7957276466363139
276,5.5,-0.003088387805627379,276,5.5,-0.13923200504529876,276,5.5,-1.3353236818037777,276,5.5,0.3459549300543131,276,5.5,0.1952446748897411,276,5.5,-0.15405657230253422,276,5.5,1.0589004440586467
277,5.5200000000000005,0.008677855624113402,277,5.5200000000000005,0.5241061553098791,277,5.5200000000000005,0.4465300854157186,277,5.5200000000000005,-0.05470599741503041,277,5.5200000000000005,0.213767921458849,277,5.5200000000000005,-0.06801122814395319,277,5.5200000000000005,0.8061836374027168
278,5.54,0.009868549890593348,278,5.54,-0.3774954084036024,278,5.54,-0.09878854433328385,278,5.54,0.10859903508909051,278,5.54,0.19860635619307226,278,5.54,-0.1119737489375104,278,5.54,0.8409672079686631
279,5.5600000000000005,0.059660515310846145,279,5.5600000000000005,0.021642693007502958,279,5.5600000000000005,0.336390009040887,279,5.5600000000000005,-0.2207961764922503,279,5.5600000000000005,0.21236859358392737,279,5.5600000000000005,-0.06552124378491624,279,5.5600000000000005,0.8480438339980858
280,5.58,0.0642394058593472,280,5.58,-0.6391301229843943,280,5.58,0.08383743214567747,280,5.58,0.12458666199058901,280,5.58,0.1892901170247521,280,5.58,-0.033245317655579,280,5.58,1.002587960732408
281,5.6000000000000005,0.08102832544217291,281,5.6000000000000005,0.9160554933780174,281,5.6000000000000005,0.3215315390268122,281,5.6000000000000005,-0.23216246562425327,281,5.6000000000000005,0.28530765441215394,281,5.6000000000000005,-0.029384638723382813,281,5.6000000000000005,1.1660895623577976
282,5.62,0.06821855652207315,282,5.62,-0.546948236972301,282,5.62,0.20198513944947835,282,5.62,0.1860454397907465,282,5.62,0.1891933269783913,282,5.62,0.00236157144370127,282,5.62,-1.1060840102760288
283,5.64,0.08498337902587733,283,5.64,-1.999685695362233,283,5.64,0.3906453240081821,283,5.64,-0.2443057855115378,283,5.64,0.09014260270363951,283,5.64,-0.22954730023218287,283,5.64,0.8022815418932595
284,5.66,0.0494798402740369,284,5.66,0.38533927919807714,284,5.66,0.347009523390981,284,5.66,0.6049748497238331,284,5.66,0.16547354593107436,284,5.66,1.230808005486384,284,5.66,0.2688109950099959
285,5.68,0.08190825748993584,285,5.68,-0.2158039471536495,285,5.68,0.4744387627238542,285,5.68,-1.3710654648657155,285,5.68,0.11683019756110023,285,5.68,0.2355558642571881,285,5.68,-0.1698358194689378
286,5.7,0.07379727979033965,286,5.7,0.3792268455834824,286,5.7,0.4763860526176324,286,5.7,0.5634074805988278,286,5.7,0.12267448037597209,286,5.7,0.06934923979452536,286,5.7,0.024344954511288607
287,5.72,0.10352394593037202,287,5.72,0.0478574524778308,287,5.72,0.5232096004181719,287,5.72,0.8912520351362453,287,5.72,0.10192271657251137,287,5.72,0.2647083846816756,287,5.72,-0.6536519574999972
288,5.74,0.030438031580076786,288,5.74,0.33870405596162034,288,5.74,0.3392917031884682,288,5.74,-0.334772207754298,288,5.74,0.0926354063712978,288,5.74,0.1838493533802437,288,5.74,-0.6411642425965063
289,5.76,0.22319389804452064,289,5.76,0.09180696175907936,289,5.76,0.05415191382338238,289,5.76,0.24560838836266408,289,5.76,0.07688828155351507,289,5.76,0.32655197822824505,289,5.76,-1.3047156437620973
290,5.78,0.14590744954591206,290,5.78,0.31990197768438106,290,5.78,-0.055916483129540624,290,5.78,-0.23314951267757647,290,5.78,0.12435029185179614,290,5.78,0.2390023713417308,290,5.78,-1.1771664291236035
291,5.8,0.030226019738959893,291,5.8,0.12672996889548566,291,5.8,-0.11881357621313876,291,5.8,0.11704654455085489,291,5.8,0.12502592348119354,291,5.8,0.3372624711918732,291,5.8,-1.50112521183646
292,5.82,0.06966519737868496,292,5.82,0.3101015723885018,292,5.82,-0.09810537040986975,292,5.82,-0.18354035520523884,292,5.82,0.1520637109857124,292,5.82,0.20693489268048085,292,5.82,-0.8304209626010203
293,5.84,0.037319082736036194,293,5.84,0.13837679108282055,293,5.84,-0.16101277583669024,293,5.84,0.1338388594540799,293,5.84,0.1623527895005688,293,5.84,0.27796902878988805,293,5.84,-0.09400014745022132
294,5.86,0.04601281952687927,294,5.86,0.3128502295695283,294,5.86,-0.09753383536175322,294,5.86,-0.02421120513269836,294,5.86,0.18335219458512775,294,5.86,0.15767042734248402,294,5.86,0.7390167198069284
295,5.88,0.015566815234262742,295,5.88,0.10063049845710528,295,5.88,-0.016255270000476583,295,5.88,0.3520150527534272,295,5.88,0.1726387079901295,295,5.88,0.20845461863742812,295,5.88,0.5792378923529103
296,5.9,0.011446224842011132,296,5.9,0.125023415317367,296,5.9,0.3820699603151921,296,5.9,-0.03854066889682509,296,5.9,0.15119796486112466,296,5.9,0.025558270405051434,296,5.9,0.937545517130576
297,5.92,-0.002502165170804732,297,5.92,-0.053201036146673125,297,5.92,-0.37808506290526145,297,5.92,0.01841161439933196,297,5.92,0.16556273104177985,297,5.92,0.10293526349531919,297,5.92,0.4724192600638129
298,5.94,0.009572063066926975,298,5.94,0.1273077269397905,298,5.94,-0.08037649705424099,298,5.94,-0.27255030679028014,298,5.94,0.15736868397481305,298,5.94,0.0034221609417591603,298,5.94,0.6997658943992086
299,5.96,0.03923844396323352,299,5.96,-0.10349783546826456,299,5.96,-0.6201643449422984,299,5.96,0.006482508138544367,299,5.96,0.25473642753646597,299,5.96,0.1263492373606879,299,5.96,0.48291924765132294
300,5.98,0.0729592969318182,300,5.98,0.03387724051226538,300,5.98,0.44297998589215165,300,5.98,-0.2812595893460237,300,5.98,0.10689828605590324,300,5.98,0.011611345790367855,300,5.98,0.9543964550053233
301,6.0,0.08114992145319641,301,6.0,-0.1469930656282403,301,6.0,-1.1625652546007128,301,6.0,0.11173677915561854,301,6.0,0.0686988018243538,301,6.0,0.13040154010794036,301,6.0,0.25315065294079864
302,6.0200000000000005,0.08046632746672418,302,6.0200000000000005,0.546012084782882,302,6.0200000000000005,-1.9610389298839859,302,6.0200000000000005,-0.1932703481235861,302,6.0200000000000005,0.11136803982452409,302,6.0200000000000005,0.010672601856203254,302,6.0200000000000005,-0.9708105326089226
303,6.04,0.08435152821634911,303,6.04,-0.18457911476099695,303,6.04,0.5614651122844314,303,6.04,0.5151537676262041,303,6.04,0.07745238910731368,303,6.04,0.15084188471768975,303,6.04,1.0446965350683446
304,6.0600000000000005,0.06991631552617576,304,6.0600000000000005,-0.09822246116726764,304,6.0600000000000005,-0.1690824206594177,304,6.0600000000000005,-1.3810366259581421,304,6.0600000000000005,0.08119724292622005,304,6.0600000000000005,-0.06228099095065343,304,6.0600000000000005,-0.2069870932301477
305,6.08,0.06977847144760638,305,6.08,-0.5467134854705933,305,6.08,0.4219152942732641,305,6.08,1.1234408456210323,305,6.08,0.04602103862293383,305,6.08,0.07602833982958287,305,6.08,-0.012032954153113635
306,6.1000000000000005,0.08307555635507016,306,6.1000000000000005,0.5206943767547558,306,6.1000000000000005,0.016187766668236774,306,6.1000000000000005,0.6289894763376732,306,6.1000000000000005,0.06130002724876576,306,6.1000000000000005,1.3421513394326388,306,6.1000000000000005,-0.33220258239064815
307,6.12,0.10182530181625866,307,6.12,0.2168927901595921,307,6.12,0.4152850118978626,307,6.12,-0.23120026289612194,307,6.12,0.057358934103782455,307,6.12,-0.006517134016869878,307,6.12,-0.5360920224813157
308,6.140000000000001,0.06011626449810207,308,6.140000000000001,-2.3850165692202188,308,6.140000000000001,0.1203237870781805,308,6.140000000000001,0.18961972617013795,308,6.140000000000001,0.09140639252470298,308,6.140000000000001,0.18455400170754208,308,6.140000000000001,-0.8371239707130984
309,6.16,0.1184909635710043,309,6.16,0.22687887049063787,309,6.16,0.45623307001909064,309,6.16,-0.15650188099595705,309,6.16,0.09550983208775791,309,6.16,0.1361835866076124,309,6.16,-1.0295683811780443
310,6.18,0.2639289752719358,310,6.18,-0.21524907194237192,310,6.18,0.25884514019026317,310,6.18,0.07296400988413806,310,6.18,0.12326447798103148,310,6.18,0.19474405115189838,310,6.18,-0.8888366259751532
311,6.2,0.03495203864417929,311,6.2,0.16675803546029494,311,6.2,0.5611835639018512,311,6.2,-0.10766352384647969,311,6.2,0.1367015950867769,311,6.2,0.21209714159289328,311,6.2,-1.2230096076983072
312,6.22,0.07543708061518742,312,6.22,-0.025512450096480836,312,6.22,0.3982753257018906,312,6.22,0.1610919279108654,312,6.22,0.15724352276835876,312,6.22,0.19475476999679917,312,6.22,-0.5126538710519879
313,6.24,0.036725700636146816,313,6.24,0.21195131429092806,313,6.24,0.6055992694492118,313,6.24,0.08951378622073833,313,6.24,0.1166151717579914,313,6.24,0.20020905852301893,313,6.24,0.25495357275237507
314,6.26,0.059749822928508424,314,6.26,0.02260122221411659,314,6.26,0.2592959221344773,314,6.26,0.29882319452248474,314,6.26,0.13804456316611158,314,6.26,0.12898395945516047,314,6.26,0.824395559178623
315,6.28,0.022190893448932197,315,6.28,0.26790814114510475,315,6.28,0.17873940978093428,315,6.28,0.0402072301671816,315,6.28,0.13556859878764377,315,6.28,0.13956543642364458,315,6.28,0.7351805104502512
316,6.3,0.020880921580574644,316,6.3,0.12653580826630262,316,6.3,-0.14111461815825171,316,6.3,0.025449629020133757,316,6.3,0.15065659997424555,316,6.3,0.05327174907423614,316,6.3,0.9038231322267227
317,6.32,-0.009485809919710713,317,6.32,0.3599538345729055,317,6.32,-0.06223315831947482,317,6.32,-0.21337299506453702,317,6.32,0.21450228556599554,317,6.32,0.05972989567652275,317,6.32,0.4555208452599594
318,6.34,0.005272311746144702,318,6.34,0.26102939020815713,318,6.34,-0.18965801244425975,318,6.34,-0.060773613393738816,318,6.34,0.05205963886277703,318,6.34,-0.09410119809726382,318,6.34,0.7720813431636763
319,6.36,0.005479216804837999,319,6.36,0.4437677295807164,319,6.36,-0.0529601832449091,319,6.36,-0.310113200140581,319,6.36,0.06450514672093899,319,6.36,-0.006067689657207811,319,6.36,0.44481981210863725
320,6.38,0.06287904102530745,320,6.38,0.24008552218557616,320,6.38,-0.2191798597581845,320,6.38,-0.06841298564156244,320,6.38,0.06799648199107029,320,6.38,-0.09611803130634733,320,6.38,0.9943809504060829
321,6.4,0.06377650233671703,321,6.4,0.11930083376311562,321,6.4,-0.05390306739534522,321,6.4,-0.238875802613016,321,6.4,0.04706356392836406,321,6.4,0.050328065926333966,321,6.4,-0.11115231412750204
322,6.42,0.0830710585552695,322,6.42,-0.12318868748563663,322,6.42,0.1914554924727956,322,6.42,0.23660381118146814,322,6.42,0.045997099687791254,322,6.42,-0.10004601702792686,322,6.42,-0.6765262975128727
323,6.44,0.06904748462653724,323,6.44,-0.021200574595040638,323,6.44,0.12415253744326375,323,6.44,-1.6777554908232466,323,6.44,0.029458776714609846,323,6.44,0.0918054156202481,323,6.44,0.9991707498025705
324,6.46,0.08393017184453648,324,6.46,-0.1893021375902508,324,6.46,-0.3989237098700849,324,6.46,0.7995066746087112,324,6.46,0.04895505605376102,324,6.46,-0.10239954939040415,324,6.46,-0.5436129478939654
325,6.48,0.048899132738518904,325,6.48,-0.07135769911572305,325,6.48,-0.18130394065859434,325,6.48,0.2719134448210434,325,6.48,0.05206446929624246,325,6.48,0.20264566096659548,325,6.48,-0.019936368779550295
326,6.5,0.08508201078866134,326,6.5,-0.24690903515171564,326,6.5,-0.35324228434206095,326,6.5,-0.24057551483307113,326,6.5,0.05335026298625715,326,6.5,-0.18433721316850968,326,6.5,-0.5847147091406507
327,6.5200000000000005,0.07403930764640472,327,6.5200000000000005,0.41972939051700614,327,6.5200000000000005,0.34959300135068183,327,6.5200000000000005,0.013366596316057121,327,6.5200000000000005,0.08868270658392696,327,6.5200000000000005,0.5277179109217708,327,6.5200000000000005,-0.5727216021552144
328,6.54,0.08949169141077266,328,6.54,-0.1322890541058231,328,6.54,-2.6403828426912432,328,6.54,-0.1886571741397239,328,6.54,0.1362564538076908,328,6.54,1.105975136523444,328,6.54,-1.17440004665853
329,6.5600000000000005,0.03934942017746048,329,6.5600000000000005,-0.19651711374905817,329,6.5600000000000005,-0.21309661966117263,329,6.5600000000000005,-0.01013590937433618,329,6.5600000000000005,0.12131982616242178,329,6.5600000000000005,-0.256298642801487,329,6.5600000000000005,-1.0743028103381267
330,6.58,0.23578299212077103,330,6.58,-0.5061027269982139,330,6.58,0.12994772752812203,330,6.58,-0.1327803791245855,330,6.58,0.12994435580333036,330,6.58,0.2958000989973591,330,6.58,-1.3738626193181724
331,6.6000000000000005,0.0932888725555196,331,6.6000000000000005,0.23782742149090463,331,6.6000000000000005,0.19365448273934968,331,6.6000000000000005,0.10573738664323871,331,6.6000000000000005,0.11795899553720643,331,6.6000000000000005,0.15867024024847018,331,6.6000000000000005,-1.1822368663075264
332,6.62,0.03778482217566151,332,6.62,0.4734686550136459,332,6.62,0.17715187588677353,332,6.62,0.10454352457504217,332,6.62,0.12381590547155251,332,6.62,0.307175233871283,332,6.62,-0.592823427362609
333,6.640000000000001,0.05284243702581504,333,6.640000000000001,-2.4117764859002557,333,6.640000000000001,0.28457028673774115,333,6.640000000000001,0.2323540099281026,333,6.640000000000001,0.09254246304169325,333,6.640000000000001,0.1860195898871482,333,6.640000000000001,0.5753448913087051
334,6.66,0.04050348268109185,334,6.66,0.0010770696577756414,334,6.66,0.2300967426312767,334,6.66,-0.003656724224375119,334,6.66,0.1957661380848797,334,6.66,0.2506340737791185,334,6.66,0.7066751224812553
335,6.68,0.031784427796591644,335,6.68,-0.1323512875273255,335,6.68,0.36319225335112915,335,6.68,-0.028499462744507344,335,6.68,0.16075880154754116,335,6.68,0.11980765056255216,335,6.68,0.8738336357576879
336,6.7,0.01617107224322691,336,6.7,0.07783131854926674,336,6.7,0.3232425855669505,336,6.7,-0.11083170420402365,336,6.7,0.04341579952375869,336,6.7,0.11753911648890622,336,6.7,0.77833329453371
337,6.72,0.004444713450701843,337,6.72,0.018986323465584938,337,6.72,0.49083094288129486,337,6.72,0.014691840103031225,337,6.72,0.06824676420791947,337,6.72,-0.011887245649737102,337,6.72,0.8294072105671697
338,6.74,0.004146935933083299,338,6.74,0.15425647317159516,338,6.74,0.46241238733594164,338,6.74,-0.12561336661349787,338,6.74,0.05055400233996692,338,6.74,-0.05300931184605985,338,6.74,0.6376730020193305
339,6.76,0.00852003349391849,339,6.76,0.12132547611812934,339,6.76,0.603137675260599,339,6.76,0.0589679037820855,339,6.76,0.04333229345675298,339,6.76,-0.1722108842973888,339,6.76,0.8107396786074542
340,6.78,0.0520268650282224,340,6.78,0.20841714523479485,340,6.78,0.44840011901903953,340,6.78,0.014928382646592733,340,6.78,0.03774017203566635,340,6.78,-0.2697892664215156,340,6.78,0.623447970905292
341,6.8,0.06577682642167763,341,6.8,0.20141241507213725,341,6.8,0.3036492601671167,341,6.8,0.298792343392798,341,6.8,0.023146315382155655,341,6.8,-0.2698400354250862,341,6.8,0.7987224779403929
342,6.82,0.07840265052135978,342,6.82,0.28218359221764644,342,6.82,0.0063733763658964816,342,6.82,-1.3639740605685589,342,6.82,0.021393142024329972,342,6.82,-0.30680174413468664,342,6.82,-1.4564472918314297
343,6.84,0.06869849027704485,343,6.84,0.3120270572728486,343,6.84,-0.020310050203224076,343,6.84,1.3095761998495727,343,6.84,0.06700059771626966,343,6.84,-0.20885190351045801,343,6.84,1.1182801608272521
344,6.86,0.08052662698045292,344,6.86,0.3411594750869237,344,6.86,-0.13048320779797576,344,6.86,0.17646180229020705,344,6.86,0.05924833308541073,344,6.86,-0.29761071128774585,344,6.86,0.09046850295787981
345,6.88,0.05223265816162818,345,6.88,0.27143514642939365,345,6.88,-0.07009569121119895,345,6.88,-0.0402975227004751,345,6.88,0.08084467854811864,345,6.88,-0.1393934402328949,345,6.88,0.06451005503414235
346,6.9,0.07287085139030668,346,6.9,0.08389368344090704,346,6.9,-0.13982364018357588,346,6.9,-6.165179179310283e-05,346,6.9,0.1307680180669589,346,6.9,-0.31651226635013313,346,6.9,-0.24903005279067406
347,6.92,0.07033406392776398,347,6.92,-0.024979730865329664,347,6.92,-0.06764286859683534,347,6.92,-0.07952417923320414,347,6.92,0.11831725568782067,347,6.92,-0.021559407337465916,347,6.92,-0.3509153165691329
348,6.94,0.09891440657570164,348,6.94,-0.027055123180523367,348,6.94,0.24497123072532626,348,6.94,-0.07873551338496355,348,6.94,0.1334275048992831,348,6.94,-0.5814948401896978,348,6.94,-0.8216778305013596
349,6.96,0.032933208406398594,349,6.96,-0.05542849601957067,349,6.96,0.024300760598014948,349,6.96,-0.06279256448576745,349,6.96,0.11345417552364166,349,6.96,0.5981455097070582,349,6.96,-1.0244748656968976
350,6.98,0.16333162271720075,350,6.98,-0.13518562026516995,350,6.98,-0.33286611873819755,350,6.98,0.01936291883124572,350,6.98,0.13241627947792856,350,6.98,0.5627480574443751,350,6.98,-1.2517029400814987
351,7.0,0.2024937039518421,351,7.0,-0.1466963406209447,351,7.0,-0.26834900507697845,351,7.0,0.12347752111208751,351,7.0,0.12304989998507271,351,7.0,-0.44604317550032546,351,7.0,-1.244977268103891
352,7.0200000000000005,0.01983667782272194,352,7.0200000000000005,0.15526962198213126,352,7.0200000000000005,-0.24439420023810887,352,7.0200000000000005,0.14041124030961083,352,7.0200000000000005,0.20743619986340397,352,7.0200000000000005,0.09831506371834503,352,7.0200000000000005,-1.014705436846923
353,7.04,0.07087411152020949,353,7.04,0.3076301948092542,353,7.04,0.21119960131731902,353,7.04,0.004504660121238457,353,7.04,0.08681815309766747,353,7.04,-0.20909905454311636,353,7.04,0.17084914976908092
354,7.0600000000000005,0.031504160854890835,354,7.0600000000000005,-0.37618160188529726,354,7.0600000000000005,-2.6295457458649936,354,7.0600000000000005,-0.1934542397586059,354,7.0600000000000005,0.054099368381452524,354,7.0600000000000005,0.11785503580484256,354,7.0600000000000005,0.5263253625239313
355,7.08,0.04868847823580505,355,7.08,-0.1180799345085338,355,7.08,0.01033211130683249,355,7.08,-0.1728393367906405,355,7.08,0.08035785968157422,355,7.08,-0.11841296905409428,355,7.08,0.7790843370554308
356,7.1000000000000005,0.01265350411329696,356,7.1000000000000005,-0.5104466756239475,356,7.1000000000000005,0.025924793036758584,356,7.1000000000000005,-0.22889784210863798,356,7.1000000000000005,0.05141107683177561,356,7.1000000000000005,0.0692694830625686,356,7.1000000000000005,0.6024490590754051
357,7.12,0.01605588502858149,357,7.12,1.1324991410557774,357,7.12,0.2579126868181785,357,7.12,-0.14863682597628053,357,7.12,0.06067113329042257,357,7.12,-0.12728053615071794,357,7.12,0.725706823759708
358,7.140000000000001,-0.006872615510848683,358,7.140000000000001,-1.787439938873724,358,7.140000000000001,0.1354077091671363,358,7.140000000000001,-0.12305519680826024,358,7.140000000000001,0.03646411514129127,358,7.140000000000001,0.025386345869571537,358,7.140000000000001,0.38803287538190245
359,7.16,0.008962951765341447,359,7.16,-1.1106868929302232,359,7.16,0.32562339944873037,359,7.16,0.08509016159744921,359,7.16,0.04466919819477283,359,7.16,-0.139937583025411,359,7.16,0.8027121673042428
360,7.18,0.023574086193334613,360,7.18,0.3357580800641652,360,7.18,0.17294806788073402,360,7.18,-0.14714844528700774,360,7.18,0.048140255225749204,360,7.18,-0.027481409133267545,360,7.18,0.36884209930830464
361,7.2,0.07167853279120574,361,7.2,-0.18066381070386225,361,7.2,0.37846609974796086,361,7.2,-1.228228347246392,361,7.2,0.07160052856233565,361,7.2,-0.22143589122054005,361,7.2,1.0053704900624474
362,7.22,0.07112881272073916,362,7.22,0.2801134836350074,362,7.22,0.264592349941818,362,7.22,1.5233584336501853,362,7.22,0.08494215885774874,362,7.22,-0.15223908093434516,362,7.22,-0.3693780690552238
363,7.24,0.07973253445031651,363,7.24,-0.0622997922884954,363,7.24,0.4806293947257157,363,7.24,-0.20251001985895606,363,7.24,0.1274599389151924,363,7.24,-0.2338145792325539,363,7.24,-0.6973840203258131
364,7.26,0.07691885291082622,364,7.26,0.19267896155670639,364,7.26,0.37738755254135986,364,7.26,0.18399721334045835,364,7.26,0.12248074430610244,364,7.26,-0.10874101453070623,364,7.26,0.9794730382859924
365,7.28,0.07795859582640749,365,7.28,-0.006314882306912348,365,7.28,0.5863060413241796,365,7.28,-0.12135012721905974,365,7.28,0.17175320399919508,365,7.28,-0.11624623438149752,365,7.28,-0.5654201052733295
366,7.3,0.05809396690585702,366,7.3,0.23949342220063582,366,7.3,0.3465705443256109,366,7.3,0.08709940947457082,366,7.3,0.14288764827925252,366,7.3,-0.031168664826558355,366,7.3,0.020209727262730383
367,7.32,0.08389337441977206,367,7.32,0.06830712439116318,367,7.32,0.27983529706305943,367,7.32,-0.09029881767424638,367,7.32,0.14472865580434296,367,7.32,-0.011290174238196756,367,7.32,-0.5866251440139766
368,7.34,0.09004656701685501,368,7.34,0.3188144829508821,368,7.34,-0.10793106496181192,368,7.34,0.13100245816004033,368,7.34,0.15629023796495603,368,7.34,-0.11073625603272683,368,7.34,-0.4910411484584758
369,7.36,0.07764520562103498,369,7.36,0.19853733080379687,369,7.36,-0.022683485036811828,369,7.36,0.05318884540047861,369,7.36,0.16622592838529035,369,7.36,-0.08395669799249075,369,7.36,-1.1175165307730508
370,7.38,0.07355032631358292,370,7.38,0.40291329726936304,370,7.38,-0.23402107098215247,370,7.38,0.2976694899333984,370,7.38,0.22550627520650965,370,7.38,-0.2773949436642336,370,7.38,-1.0272609586972
371,7.4,0.27576334594054713,371,7.4,0.06397568767747559,371,7.4,-0.054702634526070076,371,7.4,0.15336447325637037,371,7.4,0.09395807261462881,371,7.4,1.1078497914997512,371,7.4,-1.3235537137265614
372,7.42,0.060570109583285486,372,7.42,0.13366125941024973,372,7.42,-0.14408675614474825,372,7.42,0.20100669738399532,372,7.42,0.08694972916560503,372,7.42,0.2582522370124345,372,7.42,-1.0677980203969268
373,7.44,0.062288940207309164,373,7.44,-0.09665947348299617,373,7.44,0.38204016547010833,373,7.44,-0.1072935158758711,373,7.44,0.09605548731408795,373,7.44,-0.1907104929623314,373,7.44,-0.7351933810679159
374,7.46,0.04661478397994194,374,7.46,0.07916274770246719,374,7.46,-0.36534328800815496,374,7.46,0.13010611819820928,374,7.46,0.07908531982090933,374,7.46,0.15524446096324537,374,7.46,0.5218689941407179
375,7.48,0.051158025273525316,375,7.48,-0.16270994893994115,375,7.48,-0.14530431561300947,375,7.48,-0.12766437317793047,375,7.48,0.08454237530419531,375,7.48,-0.05584353421180623,375,7.48,0.5452068566993172
376,7.5,0.025771875494065347,376,7.5,-0.011793605077046377,376,7.5,-0.5884756537870411,376,7.5,0.1530107194582177,376,7.5,0.05940260977345985,376,7.5,0.17919609208530898,376,7.5,0.8899737339614201
377,7.5200000000000005,0.020189203905545888,377,7.5200000000000005,-0.1518625053689686,377,7.5200000000000005,0.1594055149153569,377,7.5200000000000005,-0.1847235445310079,377,7.5200000000000005,0.07436380992413753,377,7.5200000000000005,-0.05844187222329768,377,7.5200000000000005,0.6545638119504958
378,7.54,-0.005925340387751556,378,7.54,0.5752658795680474,378,7.54,-0.5698111777097526,378,7.54,0.48255575062975314,378,7.54,0.09418773045818819,378,7.54,0.07732610521219316,378,7.54,0.9270335526854844
379,7.5600000000000005,0.007340450447831908,379,7.5600000000000005,-0.1541090213624449,379,7.5600000000000005,-2.4227988877884834,379,7.5600000000000005,-0.7042558661442733,379,7.5600000000000005,0.1014997270260891,379,7.5600000000000005,-0.14062370458128964,379,7.5600000000000005,0.4294655084703059
380,7.58,0.0049170973163402834,380,7.58,-0.0681652761866747,380,7.58,0.2673962042543676,380,7.58,-0.7226307119305356,380,7.58,0.11854057477747304,380,7.58,0.030658416813399043,380,7.58,0.9693320215019656
381,7.6000000000000005,0.056483823882879196,381,7.6000000000000005,-0.5088759912800971,381,7.6000000000000005,-0.10591045268477428,381,7.6000000000000005,1.3013552390497192,381,7.6000000000000005,0.14762665258138025,381,7.6000000000000005,-0.17536872063535788,381,7.6000000000000005,0.45294849545682014
382,7.62,0.05871875789189166,382,7.62,0.4490636411239249,382,7.62,0.2636037045502437,382,7.62,-0.5109290761341696,382,7.62,0.1688240241970334,382,7.62,-0.03526509632180912,382,7.62,1.3035557569936562
383,7.640000000000001,0.07927103084986858,383,7.640000000000001,0.3479111007385871,383,7.640000000000001,0.06755391659217072,383,7.640000000000001,0.17860008527516627,383,7.640000000000001,0.17806978971496482,383,7.640000000000001,-0.2990041136620699,383,7.640000000000001,-0.7215497931274355
384,7.66,0.0640506661144389,384,7.66,-2.3720662484011403,384,7.66,0.27547574938086034,384,7.66,-0.3802096581534591,384,7.66,0.1488992666755213,384,7.66,-0.1559038441453684,384,7.66,-0.5252430047590607
385,7.68,0.08135228324124882,385,7.68,0.08864097812482646,385,7.68,0.16624583049142477,385,7.68,0.0393929070702306,385,7.68,0.17111240161160113,385,7.68,-0.3325072165433058,385,7.68,0.854373932401109
386,7.7,0.043891720273817415,386,7.7,-0.13205009416921554,386,7.7,0.3503605802512922,386,7.7,-0.24601292838144873,386,7.7,0.15242521276990226,386,7.7,-0.11801529648346072,386,7.7,-0.6034831101847038
387,7.72,0.07176528137953535,387,7.72,0.1560577928726448,387,7.72,0.31751879879632544,387,7.72,0.07819781818206759,387,7.72,0.2175769668808703,387,7.72,-0.3072694039823356,387,7.72,0.03281647363948599
388,7.74,0.0659101430318501,388,7.74,0.026461793876160846,388,7.74,0.4891957114781625,388,7.74,-0.11026293672902428,388,7.74,0.19817352677978975,388,7.74,-0.08796092140283181,388,7.74,-0.6373595595050474
389,7.76,0.10034507113302804,389,7.76,0.170719823792365,389,7.76,0.4448137315531682,389,7.76,0.28673920163429684,389,7.76,0.07018709587289303,389,7.76,-0.2817372047357031,389,7.76,-0.7169861702587379
390,7.78,0.025582159901744866,390,7.78,0.13753879469414845,390,7.78,0.5442589099899295,390,7.78,-0.016645235694372977,390,7.78,0.12324502119073781,390,7.78,-0.04120924169538884,390,7.78,-1.2704236190737455
391,7.8,0.17101695607553288,391,7.8,0.23030299101345253,391,7.8,0.3201766144800588,391,7.8,0.13433670637919717,391,7.8,0.09989459908538818,391,7.8,-0.35501831957759317,391,7.8,-1.14000813812194
392,7.82,0.19097084007679677,392,7.82,0.1899306412877958,392,7.82,0.14783617070622285,392,7.82,-0.21333446852545537,392,7.82,0.10485205291826047,392,7.82,-0.07643384276073885,392,7.82,-1.4395182570702305
393,7.84,0.02516045060258789,393,7.84,0.28737915448860196,393,7.84,-0.13362198644743706,393,7.84,0.13462714393166889,393,7.84,0.08022327185700076,393,7.84,1.104643028872741,393,7.84,-1.2169429565217744
394,7.86,0.06878041779450367,394,7.86,0.26182662373109483,394,7.86,-0.10006793386070759,394,7.86,-0.23925187904061185,394,7.86,0.07332566643723146,394,7.86,-0.24688309501727573,394,7.86,-0.6673430600286633
395,7.88,0.03483316379892808,395,7.88,0.32327213001138594,395,7.88,-0.1904905557715922,395,7.88,0.22677810151928798,395,7.88,0.06976985708581081,395,7.88,-0.04360871209018149,395,7.88,0.42302017130486835
396,7.9,0.047452219466445136,396,7.9,0.28569954855935337,396,7.9,-0.09446375667987658,396,7.9,-0.20399940076508766,396,7.9,0.09959123954304232,396,7.9,-0.08390755117899121,396,7.9,0.4900249465195533
397,7.92,0.0173568565777893,397,7.92,0.09479257765775038,397,7.92,0.10884237017134198,397,7.92,0.6904100202568544,397,7.92,0.10834748407161804,397,7.92,0.03084041352221812,397,7.92,0.7473237327460663
398,7.94,0.014720809248121743,398,7.94,-0.02054771530896095,398,7.94,0.18402314870036987,398,7.94,-1.264374032140088,398,7.94,0.12882988682870572,398,7.94,0.09962366082490355,398,7.94,0.5463976132488104
399,7.96,-0.0019712750709920067,399,7.96,-0.06049053405957246,399,7.96,-0.4999922102790491,399,7.96,0.5131527214014089,399,7.96,0.1484066882755655,399,7.96,0.0935182437912709,399,7.96,0.7057828817629144
400,7.98,0.0076287962331185516,400,7.98,-0.08100696805451074,400,7.98,-0.12394078759414746,400,7.98,1.035186108423504,400,7.98,0.17194575118214653,400,7.98,0.12825545414842318,400,7.98,0.4388323131652548
401,8.0,0.02645828406309547,401,8.0,-0.13013988684004793,401,8.0,-0.6128929492713453,401,8.0,-0.27633636404012796,401,8.0,0.1642555359092393,401,8.0,-0.014824242484145803,401,8.0,0.7247207786640582
402,8.02,0.06591234406464787,402,8.02,-0.11221794501850599,402,8.02,0.5284195043328995,402,8.02,0.3356778017164725,402,8.02,0.14225319932461933,402,8.02,0.09275726791435301,402,8.02,0.40546437345668274
403,8.040000000000001,0.07075090524409487,403,8.040000000000001,0.1817410858759602,403,8.040000000000001,-2.203212382589616,403,8.040000000000001,-0.14677393089109536,403,8.040000000000001,0.15786693390483944,403,8.040000000000001,-0.017271599839208958,403,8.040000000000001,0.6570112567687267
404,8.06,0.07424339892484505,404,8.06,0.2872219303681471,404,8.06,-1.0854030020121723,404,8.06,0.2091351880365326,404,8.06,0.15014349247968195,404,8.06,0.08184632627714562,404,8.06,0.23306498975246784
405,8.08,0.07716971981258101,405,8.08,-0.42950632799092614,405,8.08,0.38128157097130533,405,8.08,-0.10594976274636876,405,8.08,0.2274510722992431,405,8.08,-0.13395347090442963,405,8.08,-1.3377640949824832
406,8.1,0.06824280146479252,406,8.1,-0.08747142554132076,406,8.1,-0.09318901065106852,406,8.1,0.2382475097030569,406,8.1,0.134286952339392,406,8.1,-0.04329362369111086,406,8.1,0.8598274964367433
407,8.120000000000001,0.062477995628714963,407,8.120000000000001,-0.4985911864122136,407,8.120000000000001,0.2990586891460749,407,8.120000000000001,0.07353502381787391,407,8.120000000000001,0.06869242222302895,407,8.120000000000001,-0.1725657168020506,407,8.120000000000001,-0.31000121365429906
408,8.14,0.07741643144338645,408,8.14,1.2925811066170934,408,8.14,0.05851506798162053,408,8.14,0.38255738791296456,408,8.14,0.09667971300465134,408,8.14,0.02971595426713534,408,8.14,-0.22089108819303285
409,8.16,0.09424849039460942,409,8.16,-1.8807958747630649,409,8.16,0.30593509829421794,409,8.16,0.03584303945338934,409,8.16,0.06485361794222064,409,8.16,-0.20824873592656018,409,8.16,-0.3997977413668228
410,8.18,0.06336078326716556,410,8.18,-1.1081802722882208,410,8.18,0.1871603889964209,410,8.18,0.031418544708231785,410,8.18,0.07162539101421687,410,8.18,0.01481690770313752,410,8.18,-0.6059614071948587
411,8.2,0.09653154217224713,411,8.2,0.366484270691318,411,8.2,0.38003478413578107,411,8.2,-0.2834996737131907,411,8.2,0.042950299102213346,411,8.2,-0.31379796969835067,411,8.2,-0.9262289637881198
412,8.22,0.2562042096181293,412,8.22,-0.15826622201011506,412,8.22,0.3246515730892851,412,8.22,-0.04836070788275104,412,8.22,0.05861025678084474,412,8.22,0.06678429620393908,412,8.22,-1.131689721575343
413,8.24,0.04325657703788988,413,8.24,0.30784074856672144,413,8.24,0.5114344320237798,413,8.24,-0.35691693151566234,413,8.24,0.0600205114768396,413,8.24,-0.6207971189879287,413,8.24,-1.1167759042484355
414,8.26,0.06842322653850758,414,8.26,0.04796626460953619,414,8.26,0.45104603173886926,414,8.26,-0.058364472094031256,414,8.26,0.09189802173046177,414,8.26,0.5696366246063532,414,8.26,-1.2193694189153554
415,8.28,0.04222335267905209,415,8.28,0.3384370951990654,415,8.28,0.5205980299734553,415,8.28,-0.30696630086840115,415,8.28,0.08594671083800405,415,8.28,0.5777116213589253,415,8.28,-0.8856875219186546
416,8.3,0.0543371756704928,416,8.3,0.14392044256866365,416,8.3,0.21693594255947424,416,8.3,0.24401329783868234,416,8.3,0.12812993654953403,416,8.3,-0.3581220273379587,416,8.3,-0.024237115304551318
417,8.32,0.02515149430545056,417,8.32,0.40541612697625296,417,8.32,0.04668077927422225,417,8.32,-1.7588537307443508,417,8.32,0.14247646920777365,417,8.32,0.0803073235103071,417,8.32,0.6317919429098539
418,8.34,0.02011768197008891,418,8.34,0.21262272370245947,418,8.34,-0.15450695653226318,418,8.34,0.6434085357401148,418,8.34,0.16118010638787786,418,8.34,-0.13601264476607253,418,8.34,0.707095717584562
419,8.36,-0.003200301972569913,419,8.36,0.4183906735896742,419,8.36,-0.14635088507137164,419,8.36,0.1646412837477463,419,8.36,0.12539873316107547,419,8.36,0.09578377151598032,419,8.36,1.0326098310837646
420,8.38,0.0054566446722318475,420,8.38,0.24785530806757328,420,8.38,-0.2172336452829546,420,8.38,-0.2083976060986296,420,8.38,0.1330651729551554,420,8.38,-0.013805305203555484,420,8.38,0.934141817347868
421,8.4,0.010135978712359531,421,8.4,0.4380967935695287,421,8.4,-0.09895135471977301,421,8.4,-0.06251870902874884,421,8.4,0.12975787013895668,421,8.4,0.11178912414639651,421,8.4,0.8457491703778336
422,8.42,0.06308135937959299,422,8.42,0.1106109880039967,422,8.42,0.25045925347326703,422,8.42,-0.21541195080842362,422,8.42,0.18062299577757976,422,8.42,0.00868727162397893,422,8.42,0.5391830276709495
423,8.44,0.06853049117347561,423,8.44,0.09313839146664346,423,8.44,-0.1513911233818052,423,8.44,-0.10183885053124586,423,8.44,0.19184929776497356,423,8.44,0.08033113008163131,423,8.44,0.786737401417798
424,8.46,0.08569321778769409,424,8.46,-0.12114458423560108,424,8.46,-0.3558911141845263,424,8.46,-0.09762896175826323,424,8.46,0.07376003500139885,424,8.46,-0.003801025151332263,424,8.46,0.3477762271360997
425,8.48,0.07619471672471426,425,8.48,-0.006230501973116346,425,8.48,-0.3801677452994845,425,8.48,-0.0001714229261221011,425,8.48,0.08125935957708065,425,8.48,0.04326225923177181,425,8.48,1.016991394896099
426,8.5,0.08865175353156407,426,8.5,-0.20542241389312876,426,8.5,-0.20142685275672192,426,8.5,0.2276231556145468,426,8.5,0.08133907917131893,426,8.5,-0.08476516355303343,426,8.5,-1.344620844544034
427,8.52,0.05622538632384444,427,8.52,-0.07679469130058747,427,8.52,0.0038485559557915293,427,8.52,0.22961734869308267,427,8.52,0.06806673112763288,427,8.52,-0.09292296099762158,427,8.52,0.4830629143942988
428,8.540000000000001,0.08356699397994384,428,8.540000000000001,0.04615739742859063,428,8.540000000000001,-2.6526647051896037,428,8.540000000000001,0.09876228472938658,428,8.540000000000001,0.057054634814232584,428,8.540000000000001,-0.15183716519739426,428,8.540000000000001,0.14023329291578876
429,8.56,0.08207486104197091,429,8.56,0.3992364986748958,429,8.56,0.04909445452086519,429,8.56,-0.03506677037062577,429,8.56,0.038447039750898755,429,8.56,-0.07724355697850789,429,8.56,-0.4090319896619104
430,8.58,0.09221129090542036,430,8.58,-0.47175227843787376,430,8.58,-0.024678014837828097,430,8.58,0.0660123954994938,430,8.58,0.044608710143023846,430,8.58,-0.03788229711126546,430,8.58,-0.2689570595996385
431,8.6,0.0453917538451008,431,8.6,-0.0011233728255658642,431,8.6,0.20992356198357245,431,8.6,-0.019473561950020528,431,8.6,0.059537243599039565,431,8.6,-0.032871943367180356,431,8.6,-0.6603764260666883
432,8.620000000000001,0.24906883628516063,432,8.620000000000001,-0.6526157374107926,432,8.620000000000001,0.06488349154015667,432,8.620000000000001,0.09498289173115439,432,8.620000000000001,0.08218740354914521,432,8.620000000000001,0.01537298824032138,432,8.620000000000001,-0.8126812527570354
433,8.64,0.10403071996856547,433,8.64,1.38282916705745,433,8.64,0.27158371602696985,433,8.64,-0.018298467687530354,433,8.64,0.09005061242475537,433,8.64,-0.07317544944581943,433,8.64,-1.15386107603593
434,8.66,0.03967051193248849,434,8.66,-1.581978154501784,434,8.66,0.15505453167413955,434,8.66,0.39475955586164113,434,8.66,0.1324957143634727,434,8.66,-0.08052615157110166,434,8.66,-1.2475032291680908
435,8.68,0.05647336963176914,435,8.68,-1.323141082429555,435,8.68,0.3402995322790791,435,8.68,-0.22745475526028805,435,8.68,0.1434798808785793,435,8.68,-0.2587378560363159,435,8.68,-1.2703421987446133
436,8.700000000000001,0.038872708229451124,436,8.700000000000001,0.36573861893522264,436,8.700000000000001,0.29265974383088744,436,8.700000000000001,-0.7974279786764064,436,8.700000000000001,0.1551197070297233,436,8.700000000000001,1.190808708982654,436,8.700000000000001,-1.222425765803846
437,8.72,0.035532921224893696,437,8.72,-0.2064649118461484,437,8.72,0.47438182505324833,437,8.72,1.751793457642476,437,8.72,0.11725838291219777,437,8.72,0.04268520943235074,437,8.72,-0.2444073894344719
438,8.74,0.012938592998992039,438,8.74,0.27569579259816346,438,8.74,0.42858546041477913,438,8.74,-0.28693380151612874,438,8.74,0.14842117333749633,438,8.74,0.004815210922694557,438,8.74,0.4783487010692336
439,8.76,0.004002600036306274,439,8.76,-0.017770377484370662,439,8.76,0.5705508309295603,439,8.76,0.32196557813542825,439,8.76,0.1256458415057591,439,8.76,0.040201301560938305,439,8.76,0.6803295226111669
440,8.78,0.0003084914639284434,440,8.78,0.29823512134239744,440,8.78,0.38214797689334973,440,8.78,-0.18115948315611152,440,8.78,0.2115240419324183,440,8.78,0.0650538731209654,440,8.78,0.6357170812874784
441,8.8,0.010345234702654289,441,8.8,0.07053857905762984,441,8.8,0.1840824080218894,441,8.8,0.17180153983853885,441,8.8,0.11282191553068015,441,8.8,0.12714957978397223,441,8.8,0.7877718106817956
442,8.82,0.04585244286457351,442,8.82,0.2867847871973693,442,8.82,-0.08891064304113368,442,8.82,-0.17246395421645724,442,8.82,0.03966552176215573,442,8.82,0.10793030394066123,442,8.82,0.5113823887921172
443,8.84,0.06820307086600062,443,8.84,0.1416839674153185,443,8.84,-0.14103530704179784,443,8.84,0.14917187474340454,443,8.84,0.09639133737099073,443,8.84,0.12363252808598701,443,8.84,0.7684543212879739
444,8.86,0.07426114990003577,444,8.86,0.3425137120361041,444,8.86,-0.19243550707394522,444,8.86,-0.07798735892657285,444,8.86,0.06660263039754044,444,8.86,0.06972676057201302,444,8.86,0.3898547322257122
445,8.88,0.0718887015784896,445,8.88,0.22549088818030374,445,8.88,-0.18673196529843902,445,8.88,0.29826752507217313,445,8.88,0.06953712595652656,445,8.88,0.08030929580977807,445,8.88,0.9462188956112664
446,8.9,0.07895706696679067,446,8.9,0.3993044818615797,446,8.9,-0.21493253129886206,446,8.9,-0.025037603363163793,446,8.9,0.0408238760291512,446,8.9,-0.013987984319507995,446,8.9,-0.04601854689610332
447,8.92,0.06199038216009646,447,8.92,0.09690992001603563,447,8.92,-0.11285859701677578,447,8.92,0.056452198276460544,447,8.92,0.0458420440411043,447,8.92,-0.02870920707055638,447,8.92,-0.8135266557030306
448,8.94,0.06464684348980654,448,8.94,0.035700136850986955,448,8.94,0.23318762790695513,448,8.94,-0.3921431846023135,448,8.94,0.03669172332694917,448,8.94,-0.2083606767153784,448,8.94,1.0639408401301256
449,8.96,0.07166216392634145,449,8.96,-0.13211858465476112,449,8.96,-0.32561390678407,449,8.96,-0.08105073394996862,449,8.96,0.06564703555673808,449,8.96,-0.18605819209960534,449,8.96,-0.5485095214919554
450,8.98,0.0899401604172145,450,8.98,-0.03083859016810337,450,8.98,-0.31671619925788935,450,8.98,-0.46592117603395317,450,8.98,0.06680395025888515,450,8.98,-0.2479317565978322,450,8.98,0.08104957422730559
451,9.0,0.04661453313587475,451,9.0,-0.18211637037989853,451,9.0,-0.5953214012287433,451,9.0,0.06618456978591525,451,9.0,0.09523407340577686,451,9.0,-0.1268946543684449,451,9.0,-0.5728904168499251
452,9.02,0.11314991200769196,452,9.02,-0.0771784535378896,452,9.02,0.0022051440517513693,452,9.02,-0.45543307331073934,452,9.02,0.11783311588254092,452,9.02,-0.2524138693547647,452,9.02,-0.49291273504220817
453,9.040000000000001,0.23005160483270398,453,9.040000000000001,0.1053282292530582,453,9.040000000000001,-0.6886617640449638,453,9.040000000000001,0.44378166492443816,453,9.040000000000001,0.15097559455550674,453,9.040000000000001,-0.0624002472525293,453,9.040000000000001,-1.0835560292953905
454,9.06,0.025358852601277113,454,9.06,0.3390688739105382,454,9.06,-2.737620787443874,454,9.06,-1.2467963896134162,454,9.06,0.1359175106621599,454,9.06,-0.25687002908303774,454,9.06,-1.0237325412854061
455,9.08,0.06639439795487136,455,9.08,-0.4630307878892904,455,9.08,0.280666517931086,455,9.08,-0.0344952007907092,455,9.08,0.12612679076288622,455,9.08,0.028987642591545924,455,9.08,-1.248953480965061
456,9.1,0.03370241726884879,456,9.1,-0.060422077019812254,456,9.1,-0.329630452557609,456,9.1,1.1129351996778512,456,9.1,0.1309716003549232,456,9.1,-0.48958799894246846,456,9.1,-1.0709769357040404
457,9.120000000000001,0.05237373366955298,457,9.120000000000001,-0.6113737127075455,457,9.120000000000001,0.26651603931748435,457,9.120000000000001,-0.42759906169699674,457,9.120000000000001,0.14250562860003615,457,9.120000000000001,0.3595140558271697,457,9.120000000000001,-0.6457528969127337
458,9.14,0.01646470120529871,458,9.14,1.2953334415034374,458,9.14,-0.1268833679540114,458,9.14,0.26316388885402603,458,9.14,0.20510068656943675,458,9.14,0.8759752760761365,458,9.14,0.5527017130166674
459,9.16,0.0177381283994253,459,9.16,-1.7476069800010154,459,9.16,0.26006766994023994,459,9.16,-0.24395761152736867,459,9.16,0.04059699276714146,459,9.16,-0.43710756658155064,459,9.16,0.7036500830969639
460,9.18,-0.007280407878752789,460,9.18,-1.2016930403762065,460,9.18,-0.036898930184112645,460,9.18,0.11508880386140576,460,9.18,0.05586727759971654,460,9.18,0.14027845496335495,460,9.18,0.8285323351992169
461,9.200000000000001,0.006887994307278175,461,9.200000000000001,0.345254785125964,461,9.200000000000001,0.38236429886586987,461,9.200000000000001,-0.16305923148208404,461,9.200000000000001,0.07076136257793414,461,9.200000000000001,-0.22019771631087093,461,9.200000000000001,0.7420784920323735
462,9.22,0.009613299591386492,462,9.22,-0.1937046889054247,462,9.22,0.1801632110657977,462,9.22,0.16519081661440402,462,9.22,0.05320451148338242,462,9.22,0.1644326777644279,462,9.22,0.7057899161762896
463,9.24,0.060603847626674805,463,9.24,0.2631942707471181,463,9.24,0.5549859476171313,463,9.24,0.020729579186775555,463,9.24,0.04952889042781113,463,9.24,-0.08399225935587006,463,9.24,0.5107602793427979
464,9.26,0.06177974943969047,464,9.26,0.01862881851741923,464,9.26,0.3840754404873746,464,9.26,0.3496549089185105,464,9.26,0.030249869164412187,464,9.26,0.15099084507497462,464,9.26,0.6332285121704703
465,9.28,0.08237486637764209,465,9.28,0.32616015111180996,465,9.28,0.6937096221207711,465,9.28,0.06643721270464839,465,9.28,0.03558394121164354,465,9.28,-0.07878148372227896,465,9.28,0.7012358402225751
466,9.3,0.06785705348471494,466,9.3,0.10434383146598289,466,9.3,0.394939485718138,466,9.3,0.13958886305598506,466,9.3,0.03742670224808063,466,9.3,0.09171264999574154,466,9.3,0.3018978914135837
467,9.32,0.07902979038649426,467,9.32,0.3277380627684959,467,9.32,0.3881617512443815,467,9.32,-0.14628682432717366,467,9.32,0.06411853783439972,467,9.32,-0.12256481703456731,467,9.32,-1.3786980519381002
468,9.34,0.04746547349209948,468,9.34,0.17257942725445688,468,9.34,-0.0703591837607819,468,9.34,0.10191899847276571,468,9.34,0.07292040121205827,468,9.34,0.00045787360174209124,468,9.34,0.9816300198603858
469,9.36,0.08364514978283813,469,9.36,0.383293459958336,469,9.36,0.01169065201278766,469,9.36,-0.19310398458811653,469,9.36,0.10785470937840227,469,9.36,-0.19118546928697797,469,9.36,-0.4864309125384846
470,9.38,0.07745358027130995,470,9.38,0.22877475513671436,470,9.38,-0.2329578728406316,470,9.38,0.09043194873195146,470,9.38,0.1208566577974583,470,9.38,-0.13912917092815125,470,9.38,-0.04508037690291245
471,9.4,0.09319313908974108,471,9.4,0.4268132536948807,471,9.4,-0.008442432071436457,471,9.4,-0.1137901844004745,471,9.4,0.14797578283397508,471,9.4,-0.24434214704873355,471,9.4,-0.6312252222429392
472,9.42,0.04446574317863676,472,9.42,0.0898821414147325,472,9.42,-0.24046015390892214,472,9.42,0.34827845740705,472,9.42,0.11173892433450262,472,9.42,-0.12924959346884385,472,9.42,-0.5601115232496163
473,9.44,0.2642290773057697,473,9.44,0.07873218079489153,473,9.44,-0.037226155970960975,473,9.44,-1.594174890643559,473,9.44,0.12258435030820329,473,9.44,-0.21017124071466214,473,9.44,-1.1357821290258097
474,9.46,0.0902970059079162,474,9.46,-0.1219410521336908,474,9.46,-0.21544285952842038,474,9.46,0.9926923414423969,474,9.46,0.10880467046731832,474,9.46,-0.135859899718064,474,9.46,-1.073718762363428
475,9.48,0.04709563056251353,475,9.48,0.03558870857369574,475,9.48,0.0036446028177900213,475,9.48,0.13378546175926484,475,9.48,0.17464997267254162,475,9.48,-0.1808309078947237,475,9.48,-1.3910725300872508
476,9.5,0.05648289219638575,476,9.5,-0.20588899450914785,476,9.5,0.20298785745130535,476,9.5,-0.2041035336534358,476,9.5,0.15332117808843213,476,9.5,-0.1631148011221607,476,9.5,-1.230784447333185
477,9.52,0.048616578437750836,477,9.52,-0.033422815067601135,477,9.52,0.18084560491090096,477,9.52,-0.1011389282300718,477,9.52,0.024140533992635337,477,9.52,-0.174328889379735,477,9.52,-1.0252946880695848
478,9.540000000000001,0.034786268521354705,478,9.540000000000001,-0.029013086941949946,478,9.540000000000001,-0.37822383568039425,478,9.540000000000001,-0.1939081520026444,478,9.540000000000001,0.07240586680146527,478,9.540000000000001,-0.455779743604235,478,9.540000000000001,0.2555164316417826
479,9.56,0.02207442811617738,479,9.56,0.5012836831357457,479,9.56,-0.12929778425736765,479,9.56,-0.17986608870470178,479,9.56,0.0505302712113054,479,9.56,0.9303311738174256,479,9.56,0.5922594131920942
480,9.58,0.00126240431420781,480,9.58,-0.44400055316204023,480,9.58,-0.30835389462662166,480,9.58,-0.15036398662796663,480,9.58,0.050717879903420304,480,9.58,0.04690178719653077,480,9.58,0.775135914145616
481,9.6,0.0062113780959031995,481,9.6,0.049454893571744235,481,9.6,0.43965644514234087,481,9.6,-0.09936274616685745,481,9.6,0.019038087420836215,481,9.6,-0.2888636116685488,481,9.6,0.6817082117291468
482,9.620000000000001,-0.006307908268532098,482,9.620000000000001,-0.6826336968031117,482,9.620000000000001,-2.524797228135125,482,9.620000000000001,0.040679003156265624,482,9.620000000000001,0.015674190979460302,482,9.620000000000001,-0.002043575113464927,482,9.620000000000001,0.6909116280112152
483,9.64,0.03383459982006403,483,9.64,1.1919308600298757,483,9.64,0.0633206575129571,483,9.64,0.04180263507283431,483,9.64,0.013951893335015545,483,9.64,-0.1900775688866746,483,9.64,0.5614196759547038
484,9.66,0.05018135206320704,484,9.66,-0.8602978567109208,484,9.66,0.046447154487776594,484,9.66,-0.02798136246114085,484,9.66,0.037450487247930875,484,9.66,0.05605399394496749,484,9.66,0.7398138735641946
485,9.68,0.08105693081169416,485,9.68,-1.9272846534007324,485,9.68,0.26956119064681217,485,9.68,-0.27962625540569125,485,9.68,0.04792213076872696,485,9.68,-0.14370651301254742,485,9.68,0.729782019430862
486,9.700000000000001,0.06384888520809864,486,9.700000000000001,0.4738143300644977,486,9.700000000000001,0.08933300423147231,486,9.700000000000001,-0.1611881220121724,486,9.700000000000001,0.06445919990487994,486,9.700000000000001,0.058661985284313635,486,9.700000000000001,0.7091897670386821
487,9.72,0.06924959342850157,487,9.72,-0.28307521140010605,487,9.72,0.33474760751635163,487,9.72,-0.3201147021414503,487,9.72,0.08407095237892812,487,9.72,-0.15482854882083485,487,9.72,-1.3177537708153961
488,9.74,0.030159163568625018,488,9.74,0.33369930019228744,488,9.74,0.0772957470774897,488,9.74,-0.13475504879678615,488,9.74,0.10910886815495278,488,9.74,0.018564149212732067,488,9.74,1.1587985826273592
489,9.76,0.059238717412419914,489,9.76,-0.08716985495467008,489,9.76,0.39912586995094335,489,9.76,-0.3246778330454173,489,9.76,0.10485599722233034,489,9.76,-0.2082507765814003,489,9.76,-0.21433225766793823
490,9.78,0.047852938765365526,490,9.78,0.3052867433958424,490,9.78,0.18162933415670698,490,9.78,0.2605753288804009,490,9.78,0.07964025136090107,490,9.78,-0.02943958083462629,490,9.78,0.07132440491883922
491,9.8,0.08815415143537049,491,9.8,0.03979661770273561,491,9.8,0.4961982047893678,491,9.8,-0.6793967043072313,491,9.8,0.09238356586812851,491,9.8,-0.34672772780103756,491,9.8,-0.39030020589619546
492,9.82,0.028943733792831425,492,9.82,0.3235621515043817,492,9.82,0.30422938865106214,492,9.82,-1.0254048130599396,492,9.82,0.09709664666784247,492,9.82,-0.16922432468529255,492,9.82,-0.3490672854496578
493,9.84,0.20403185199693236,493,9.84,0.0991647839933233,493,9.84,0.6550663337779441,493,9.84,1.3049946246771267,493,9.84,0.16639696043528687,493,9.84,-0.3965715052527561,493,9.84,-0.8884673940047613
494,9.86,0.1240321791978939,494,9.86,0.37509533696812075,494,9.86,0.4075889797372715,494,9.86,-0.416277034840389,494,9.86,0.07254452355887801,494,9.86,-0.12410711242612357,494,9.86,-0.9457761453587273
495,9.88,0.028168233511739818,495,9.88,0.19210937023005586,495,9.88,0.49181957071699256,495,9.88,0.2510043185137058,495,9.88,0.018718473312858478,495,9.88,-0.3710453542241625,495,9.88,-1.190436388135263
496,9.9,0.05528864494763966,496,9.9,0.46267635225599624,496,9.9,-0.06458376946195195,496,9.9,-0.22246249907387133,496,9.9,0.04149014113801867,496,9.9,-0.00350607787183398,496,9.9,-0.9000872964527352
497,9.92,0.023234990013766697,497,9.92,0.13048931395838811,497,9.92,-0.008830575299714774,497,9.92,0.18183357436279562,497,9.92,0.018700114013444617,497,9.92,-0.3974185739037369,497,9.92,-0.8598454889996517
498,9.94,0.013296126752502614,498,9.94,0.13599573389916517,498,9.94,-0.43485419682031945,498,9.94,-0.1156980266630075,498,9.94,0.015623104142896306,498,9.94,0.083029558490068,498,9.94,0.2911928479268655
499,9.96,-0.02361048629427576,499,9.96,-0.13156790679243988,499,9.96,-0.09025388425771494,499,9.96,0.30080799818794396,499,9.96,-0.008013701303775149,499,9.96,-0.625162853569502,499,9.96,0.6274509507746133
500,9.98,-0.012666121626918587,500,9.98,0.05942752506106279,500,9.98,-0.3992341633783031,500,9.98,0.08079281580392533,500,9.98,0.0013844667584273554,500,9.98,0.3882026318693661,500,9.98,0.888557726829301
501,10.0,-0.026340620356832267,501,10.0,-0.2411469668731441,501,10.0,-0.07153664165720436,501,10.0,0.46669956989793987,501,10.0,0.0033887682260090347,501,10.0,0.787207414776926,501,10.0,0.7384243562471718
502,10.02,-0.0014422411743657715,502,10.02,-0.03403233321191594,502,10.02,-0.39840120138800583,502,10.02,0.1095163829349359,502,10.02,0.03202762301941271,502,10.02,-0.43958614622851966,502,10.02,0.8240003017989851
503,10.040000000000001,0.02591666522252765,503,10.040000000000001,-0.07987874583466059,503,10.040000000000001,-0.009439354129034119,503,10.040000000000001,0.2760335331477227,503,10.040000000000001,0.03626960942322749,503,10.040000000000001,0.0004400475939250757,503,10.040000000000001,0.4656641296572971
504,10.06,0.043917407688314716,504,10.06,0.5276952494692623,504,10.06,-0.3340393692468802,504,10.06,-0.08492206895360836,504,10.06,0.071415598927009,504,10.06,-0.17453582070942,504,10.06,0.8342822855084912
505,10.08,0.058848329529058774,505,10.08,-0.42824801068707063,505,10.08,0.08374421918478764,505,10.08,0.28805010170757356,505,10.08,0.09071027272880341,505,10.08,-0.002804547086827194,505,10.08,0.5309941173569047
506,10.1,0.05243912464136707,506,10.1,0.042208112785476946,506,10.1,-0.2364418362824745,506,10.1,-0.09515727888405645,506,10.1,0.11520994080979671,506,10.1,-0.058063196831423504,506,10.1,0.8610790465265247
507,10.120000000000001,0.06731227810186942,507,10.120000000000001,-0.7288595723394501,507,10.120000000000001,0.6492418859024573,507,10.120000000000001,0.3286642916956346,507,10.120000000000001,0.08798997895152116,507,10.120000000000001,0.023606179684688037,507,10.120000000000001,-1.4572697139745838
508,10.14,0.039507733648167925,508,10.14,1.0988263570350214,508,10.14,-0.18867944113603768,508,10.14,-0.05724828722049054,508,10.14,0.09674441931689394,508,10.14,0.013047061243330386,508,10.14,0.9648834831972195
509,10.16,0.05919819405407372,509,10.16,-0.7286886389438657,509,10.16,0.17851000133809497,509,10.16,0.7234730555221599,509,10.16,0.0953873780470904,509,10.16,-0.006674742746679966,509,10.16,-0.13744160683856488
510,10.18,0.05401412471727806,510,10.18,-1.9748065692319383,510,10.18,-0.5178366985674048,510,10.18,-1.4238250319093229,510,10.18,0.12925383418632438,510,10.18,-0.035469454905142354,510,10.18,-0.09013371870024016
511,10.200000000000001,0.09212434078829342,511,10.200000000000001,0.4377386154031924,511,10.200000000000001,0.6328883829343424,511,10.200000000000001,0.9176213876366369,511,10.200000000000001,0.16261522268875078,511,10.200000000000001,-0.1263633499850189,511,10.200000000000001,-0.39664201538565086
512,10.22,0.02444313001359671,512,10.22,-0.3002300599341965,512,10.22,-0.8055204596325873,512,10.22,0.700528678678853,512,10.22,0.029137276167178684,512,10.22,-0.19769416782959956,512,10.22,-0.56946309065007
513,10.24,0.14283031097578,513,10.24,0.29048087830339114,513,10.24,-2.050098325267313,513,10.24,-0.10191611732230545,513,10.24,0.03867342318045347,513,10.24,-0.3839592268754687,513,10.24,-0.9588762109819652
514,10.26,0.2125536688694461,514,10.26,-0.07230397265296634,514,10.26,0.47130698679464555,514,10.26,0.22163370412604605,514,10.26,0.036726508038850296,514,10.26,-0.32040827179925413,514,10.26,-1.0740052529790807
515,10.28,0.01847564509108967,515,10.28,0.3202668311205796,515,10.28,0.01019020611227506,515,10.28,-0.05029687066811693,515,10.28,0.02489685610219758,515,10.28,-0.40641987590865575,515,10.28,-1.2637155582165955
516,10.3,0.0665478141748959,516,10.3,0.060651025236914326,516,10.3,0.36710465087718425,516,10.3,0.06795320512887605,516,10.3,0.012940523915744677,516,10.3,-0.2732064022543952,516,10.3,-1.0791156625186422
517,10.32,0.03907119101654498,517,10.32,0.3457979144308051,517,10.32,0.21952729976698046,517,10.32,-0.03986667930422752,517,10.32,-0.0034623857626814676,517,10.32,-0.4145917796548733,517,10.32,-1.1286250770851545
518,10.34,0.047931420681584846,518,10.34,0.1546393513538426,518,10.34,0.33001102276079586,518,10.34,0.1509384672353683,518,10.34,0.003464179969149908,518,10.34,-0.2198199705931621,518,10.34,0.14922458834831406
519,10.36,0.016931922056226047,519,10.36,0.4177656612716298,519,10.36,0.33941562382667684,519,10.36,0.22722719091836424,519,10.36,0.01507381058093417,519,10.36,-0.42697467228697317,519,10.36,0.4834129370980516
520,10.38,0.014945445443043711,520,10.38,0.22259919319689903,520,10.38,0.37721261284545754,520,10.38,0.27268912898215675,520,10.38,0.041788731385249064,520,10.38,-0.1429280405890617,520,10.38,0.8406081912800596
521,10.4,-0.0072351700086783904,521,10.4,0.45863112068169526,521,10.4,0.4706127131697761,521,10.4,0.11269755140242095,521,10.4,0.06006362880305268,521,10.4,-0.7100532947334774,521,10.4,0.6384555873621142
522,10.42,0.002027620689940508,522,10.42,0.13961122101718484,522,10.42,0.47336006841713135,522,10.42,-0.10203128307487448,522,10.42,0.09271871536092621,522,10.42,0.9316056308422842,522,10.42,0.8912885599888505
523,10.44,0.022757915926376396,523,10.44,0.12921999824411895,523,10.44,0.5801699204282266,523,10.44,-0.047545215503776515,523,10.44,0.10818837229151489,523,10.44,0.0018068818862509999,523,10.44,0.4176551354978512
524,10.46,0.06674249271460746,524,10.46,-0.10870157717727832,524,10.46,0.5280009103346657,524,10.46,-0.07606361171049932,524,10.46,0.12133037542220469,524,10.46,-0.3411023168302953,524,10.46,0.9171816183687457
525,10.48,0.07534023879601502,525,10.48,0.04782195443037196,525,10.48,0.5669730660695586,525,10.48,0.016004638256895527,525,10.48,0.08614936271800915,525,10.48,-0.14854396316975102,525,10.48,0.34615564294705975
526,10.5,0.08101703514311123,526,10.5,-0.1808821645487489,526,10.5,0.2039072933865053,526,10.5,-0.09711228976288364,526,10.5,0.10548193456295989,526,10.5,-0.1896293117769878,526,10.5,1.2528828348379206
527,10.52,0.08228263644621461,527,10.52,-0.03139959590263776,527,10.52,0.16095028165585382,527,10.52,0.3401959146393785,527,10.52,0.09391516659136455,527,10.52,-0.09905527183664041,527,10.52,-0.6532180274443267
528,10.540000000000001,0.07800651268644833,528,10.540000000000001,0.10529453562657919,528,10.540000000000001,-0.08672873806301312,528,10.540000000000001,-0.23790394992043093,528,10.540000000000001,0.16403396971464948,528,10.540000000000001,-0.11074433925700618,528,10.540000000000001,-0.23291160796431792
529,10.56,0.07378790089574024,529,10.56,0.43828896561112995,529,10.56,0.07154561533631815,529,10.56,-1.0142178111174782,529,10.56,0.13052501505379874,529,10.56,-0.10252137997121362,529,10.56,0.8948368625737921
530,10.58,0.08491331533342401,530,10.58,-0.44370164404621504,530,10.58,-0.14616694445893075,530,10.58,1.693404006353828,530,10.58,0.025148304354323633,530,10.58,-0.10479231055913191,530,10.58,-0.424872448647258
531,10.6,0.10497192159377634,531,10.6,0.02463812807167549,531,10.6,0.04133475351732149,531,10.6,-0.2813072261523288,531,10.6,0.05376338053767628,531,10.6,-0.14223607031131472,531,10.6,0.05660250558495015
532,10.620000000000001,0.06957955597269784,532,10.620000000000001,-0.5711732231905509,532,10.620000000000001,-0.22166298665282397,532,10.620000000000001,0.3194366277807432,532,10.620000000000001,0.04264996961819078,532,10.620000000000001,-0.08256992761238867,532,10.620000000000001,-0.5268458203783131
533,10.64,0.11558459839183027,533,10.64,1.3631422864786387,533,10.64,0.0338611815959993,533,10.64,-0.17947539562894851,533,10.64,0.04140901223299331,533,10.64,-0.1633877029226471,533,10.64,-0.4833958511236249
534,10.66,0.2473307694117366,534,10.66,-1.5213890757160589,534,10.66,-0.14160750972070743,534,10.66,0.18416350005325183,534,10.66,0.01907816873058529,534,10.66,-0.20869408709150356,534,10.66,-1.0187682249889263
535,10.68,0.05060029148207166,535,10.68,-1.2414979600689025,535,10.68,0.5269431076288955,535,10.68,-0.16652217432702893,535,10.68,0.008382777591794623,535,10.68,-0.33801457761429593,535,10.68,-1.0161989755092553
536,10.700000000000001,0.08368586669746322,536,10.700000000000001,0.3765167452474575,536,10.700000000000001,-0.3190808208358816,536,10.700000000000001,0.20299914921967893,536,10.700000000000001,0.01002116998444194,536,10.700000000000001,-0.215484844244615,536,10.700000000000001,-1.1932451427211443
537,10.72,0.05553747935212997,537,10.72,-0.13040454257866058,537,10.72,0.03478662735067236,537,10.72,0.005653891336690697,537,10.72,0.03386333382423163,537,10.72,-0.2676689840129514,537,10.72,-1.0744579385529738
538,10.74,0.0644437457200958,538,10.74,0.26877923684333965,538,10.74,-0.6172173286024037,538,10.74,0.4000991765084178,538,10.74,0.04672429672786628,538,10.74,-0.17353323588488703,538,10.74,-0.5746348146653072
539,10.76,0.03702364652672896,539,10.76,0.02454574175388762,539,10.76,0.5337932436119068,539,10.76,0.08486296168184418,539,10.76,0.07483871793924803,539,10.76,-0.2748876782143507,539,10.76,0.4802568125577246
540,10.78,0.0345619028712431,540,10.78,0.2821281898296723,540,10.78,-0.926158025064801,540,10.78,0.19365618101655685,540,10.78,0.10648715743670847,540,10.78,-0.10206379603727496,540,10.78,0.727453498964243
541,10.8,0.010936117375274309,541,10.8,0.13966665258097435,541,10.8,-2.031939100454663,541,10.8,-0.2925398906912978,541,10.8,0.13437633390078027,541,10.8,-0.26378020874899394,541,10.8,0.8792371613689806
542,10.82,0.018344894745517735,542,10.82,0.29120365905491397,542,10.82,0.48501553413069637,542,10.82,0.030276906668901295,542,10.82,0.13553065992268362,542,10.82,-0.0445533702390532,542,10.82,0.8720836455272585
543,10.84,0.026003762630048093,543,10.84,0.21247479944484265,543,10.84,-0.06195502837789575,543,10.84,-0.4025205779441099,543,10.84,0.10087539877282946,543,10.84,-0.4909349105557732,543,10.84,0.8459729696600627
544,10.86,0.06827635734215194,544,10.86,0.3592726815335951,544,10.86,0.36670585013617957,544,10.86,0.05112735199072135,544,10.86,0.11255953851433724,544,10.86,1.1130315985720878,544,10.86,0.8913142496350255
545,10.88,0.08042432776034965,545,10.88,0.2909182336938561,545,10.88,0.15288835548459057,545,10.88,-0.423055900966235,545,10.88,0.11588384641278889,545,10.88,-0.012819317700368538,545,10.88,0.8839616319082374
546,10.9,0.08938946366833445,546,10.9,0.37871240800194095,546,10.9,0.3497481322778203,546,10.9,0.47873372726548247,546,10.9,0.17834596462850075,546,10.9,-0.1337728774927684,546,10.9,0.7964291959520499
547,10.92,0.083207203706699,547,10.92,0.17137649500168076,547,10.92,0.27652066865837177,547,10.92,-1.6437091978867977,547,10.92,0.12300322407099848,547,10.92,-0.07786304430737226,547,10.92,0.6181490402588374
548,10.94,0.08457586029423118,548,10.94,0.01910486638531308,548,10.94,0.43250567329696876,548,10.94,0.11582941231196449,548,10.94,0.03756304341671797,548,10.94,-0.05736744701930278,548,10.94,-1.2474255971276118
549,10.96,0.06935729626501473,549,10.96,-0.07306841387204409,549,10.96,0.4269900545213782,549,10.96,0.6087565218936105,549,10.96,0.06073302983896781,549,10.96,-0.049573164231859465,549,10.96,1.1288287753125499
550,10.98,0.09087176533336146,550,10.98,-0.06929142339289063,550,10.98,0.5318438948268074,550,10.98,-0.4444908145754909,550,10.98,0.04141124852039123,550,10.98,-0.015088020365985975,550,10.98,-0.2790113646590309
551,11.0,0.09843119229726148,551,11.0,-0.13238660471505134,551,11.0,0.6075215594435728,551,11.0,0.02466465849889935,551,11.0,0.04200578260959108,551,11.0,-0.06533069978544215,551,11.0,0.0006614403857043053
552,11.02,0.08066273720853072,552,11.02,-0.12190038006397946,552,11.02,0.6085127328597065,552,11.02,-0.33081537767579683,552,11.02,0.017123838233388367,552,11.02,-0.01908989834264435,552,11.02,-0.4016873902465462
553,11.040000000000001,0.09078734406231623,553,11.040000000000001,0.39774448948977814,553,11.040000000000001,0.5508218228225014,553,11.040000000000001,-0.07966985054737329,553,11.040000000000001,0.02200871844905848,553,11.040000000000001,-0.07658253514243103,553,11.040000000000001,-0.44376711241337335
554,11.06,0.25414488510179345,554,11.06,-0.05621273220774272,554,11.06,0.23276291696231113,554,11.06,-0.228346046481803,554,11.06,0.020887824540777162,554,11.06,-0.020974552463992536,554,11.06,-0.9324508214875226
555,11.08,0.06178446582257797,555,11.08,-0.25816101233506256,555,11.08,0.08725261947666003,555,11.08,-0.00590594382919966,555,11.08,0.04509660694341129,555,11.08,-0.1401464861047536,555,11.08,-0.952226094595469
556,11.1,0.06278204145820337,556,11.1,-0.38831140164764755,556,11.1,-0.09314210733192536,556,11.1,-0.07567311503094562,556,11.1,0.05842035027070974,556,11.1,-0.157818096100273,556,11.1,-1.2376119209446368
557,11.120000000000001,0.05263234239245963,557,11.120000000000001,0.085985662116339,557,11.120000000000001,-0.005671687384470973,557,11.120000000000001,0.11143609967596767,557,11.120000000000001,0.08822137535866294,557,11.120000000000001,-0.31068999939721015,557,11.120000000000001,-1.0783338933672046
558,11.14,0.048609537743164746,558,11.14,0.6235138525658164,558,11.14,-0.10976488441006545,558,11.14,-0.07664978061081089,558,11.14,0.11121791039320747,558,11.14,-0.18617794860945797,558,11.14,-1.067286881014924
559,11.16,0.03144523246872676,559,11.16,-2.481099383816852,559,11.16,0.03195471510997767,559,11.16,-0.09641632041595678,559,11.16,0.13998098123075547,559,11.16,-0.29420697448222594,559,11.16,0.20975992156110326
